SpectraSuite Data File
++++++++++++++++++++++++++++++++++++
Date: Wed Aug 24 15:35:48 EEST 2022
User: mkilpela
Dark Spectrum Present: Yes
Reference Spectrum Present: No
Number of Sampled Component Spectra: 1
Spectrometers: JAZA2845
Integration Time (usec): 5000 (JAZA2845)
Spectra Averaged: 1 (JAZA2845)
Boxcar Smoothing: 0 (JAZA2845)
Correct for Electrical Dark: No (JAZA2845)
Strobe/Lamp Enabled: No (JAZA2845)
Correct for Detector Non-linearity: No (JAZA2845)
Correct for Stray Light: No (JAZA2845)
Number of Pixels in Processed Spectrum: 2048
>>>>>Begin Processed Spectral Data<<<<<
340,21	-0,0000E00
340,58	-0,0000E00
340,96	-0,0000E00
341,33	-0,0000E00
341,70	-0,0000E00
342,07	-0,0000E00
342,45	-0,0000E00
342,82	-0,0000E00
343,19	-0,0000E00
343,57	-0,0000E00
343,94	-0,0000E00
344,31	-0,0000E00
344,68	-0,0000E00
345,06	-0,0000E00
345,43	-0,0000E00
345,80	-0,0000E00
346,18	-0,0000E00
346,55	-0,0000E00
346,92	-0,0000E00
347,29	-0,0000E00
347,67	-0,0000E00
348,04	-0,0000E00
348,41	-0,0000E00
348,78	-0,0000E00
349,16	-0,0000E00
349,53	-0,0000E00
349,90	-0,0000E00
350,27	-4,5017E-01
350,64	-6,1558E-01
351,02	-2,0008E-01
351,39	-1,8513E-01
351,76	-1,0498E00
352,13	-1,8742E-01
352,51	-1,3359E-01
352,88	-8,7311E-01
353,25	-2,6743E-01
353,62	-1,8947E-01
353,99	-2,9778E-01
354,37	-2,6322E-01
354,74	-4,8862E-01
355,11	-1,5605E00
355,48	-7,0429E-01
355,85	-2,4973E-01
356,23	-2,8208E-01
356,60	-4,0243E-01
356,97	-2,4301E-01
357,34	-3,4612E-01
357,71	-3,7390E-01
358,08	-1,8580E-01
358,46	-2,3843E-01
358,83	-3,6934E-01
359,20	-3,1327E-01
359,57	-4,6087E-01
359,94	-4,7506E-01
360,31	-5,0009E-01
360,69	-1,0997E-01
361,06	-3,3160E-01
361,43	-5,7439E-01
361,80	-2,7473E-01
362,17	-2,2893E-01
362,54	-2,8875E-01
362,91	-4,3168E-01
363,29	-8,9551E-02
363,66	-3,5587E-01
364,03	-2,1338E-01
364,40	-1,0442E-01
364,77	-6,6089E-02
365,14	-2,3696E-01
365,51	-2,5160E-01
365,88	-1,4872E00
366,26	-4,8286E-01
366,63	-7,5222E-01
367,00	-4,6503E-01
367,37	-6,6612E-01
367,74	-3,1589E-01
368,11	-3,8611E-01
368,48	-1,5133E00
368,85	-1,3547E-02
369,22	-2,4112E-01
369,59	-4,5709E-01
369,97	-1,4221E-01
370,34	-2,4058E-01
370,71	-3,5038E-01
371,08	-2,8870E-01
371,45	-6,4440E-01
371,82	-6,4327E-01
372,19	-2,8645E-01
372,56	-3,4526E-01
372,93	-2,7342E-01
373,30	-2,4267E-01
373,67	-1,8242E-01
374,04	-6,7719E-02
374,41	-2,6384E-01
374,78	-2,3547E-01
375,15	-3,8599E-01
375,52	-1,4731E-01
375,89	-5,2050E-01
376,26	-4,5997E-01
376,63	-4,6581E-01
377,00	-2,8683E-01
377,38	-4,9563E-01
377,75	-5,5530E-01
378,12	-6,8988E-01
378,49	-6,0540E-01
378,86	-3,3550E-01
379,23	-2,8273E-01
379,60	-1,1593E-01
379,97	-3,9743E-01
380,34	-3,5067E-01
380,71	-3,3287E-01
381,08	-3,2783E-01
381,45	-8,7977E-02
381,82	-2,0194E-01
382,19	-4,7758E-01
382,55	-4,5585E-01
382,92	-3,6840E-01
383,29	-2,9368E-02
383,66	-2,0313E-01
384,03	-4,2776E-01
384,40	-3,7178E-01
384,77	-2,3761E-01
385,14	-3,2966E-01
385,51	-2,4501E-01
385,88	-4,6838E-01
386,25	-2,3601E-01
386,62	-4,2436E-01
386,99	-2,2849E-01
387,36	-3,1571E-02
387,73	-3,5621E-01
388,10	-2,6563E-01
388,47	-2,0452E-01
388,84	-2,7134E-01
389,21	-1,8118E-01
389,58	-2,7910E-01
389,94	-8,7464E-02
390,31	-1,1147E-01
390,68	-2,2434E-01
391,05	-1,9112E-01
391,42	-2,3433E-01
391,79	-1,7752E-01
392,16	-2,5184E-01
392,53	-1,9897E-01
392,90	-2,3689E-01
393,27	-2,5929E-01
393,63	-2,5581E-01
394,00	-3,0019E-01
394,37	-2,3266E-01
394,74	-2,3125E-01
395,11	-3,6665E-01
395,48	-3,0300E-01
395,85	-2,4820E-01
396,22	-1,1804E-01
396,58	-2,2569E-01
396,95	-2,3244E-01
397,32	-1,8212E-01
397,69	-1,8560E-01
398,06	-2,6213E-01
398,43	-2,2761E-01
398,80	-1,7822E-01
399,16	-1,7799E-01
399,53	-8,1838E-02
399,90	-1,8987E-01
400,27	-1,8303E-01
400,64	-4,6685E-02
401,01	2,7510E-02
401,37	-1,4670E-01
401,74	-1,3970E-01
402,11	-3,8476E-01
402,48	-2,7807E-01
402,85	-2,2594E-01
403,22	-1,7995E-01
403,58	-2,6055E-01
403,95	-2,4032E-01
404,32	-2,2499E-01
404,69	-1,7118E-01
405,06	-1,5315E-01
405,42	-2,5702E-01
405,79	-2,8529E-01
406,16	-7,3825E-02
406,53	-1,8493E-01
406,89	-1,3866E-01
407,26	-1,3148E-01
407,63	-1,3726E-01
408,00	-7,9897E-02
408,37	-7,6841E-02
408,73	-7,3639E-02
409,10	-7,6917E-02
409,47	-8,9888E-02
409,84	-9,0869E-02
410,20	-1,1530E-01
410,57	-8,6255E-02
410,94	-7,8788E-02
411,31	-1,7673E-01
411,67	-9,6915E-02
412,04	-1,3053E-01
412,41	-7,5936E-02
412,77	-6,8257E-02
413,14	-5,1981E-02
413,51	-5,2070E-02
413,88	-1,6085E-02
414,24	1,9595E-02
414,61	9,9118E-03
414,98	8,4013E-02
415,34	1,1400E-01
415,71	1,2754E-01
416,08	1,2405E-01
416,45	1,1924E-01
416,81	1,4451E-01
417,18	1,4887E-01
417,55	2,0049E-01
417,91	4,3558E-02
418,28	2,7496E-01
418,65	2,0399E-01
419,01	2,7417E-01
419,38	5,6475E-01
419,75	4,7130E-01
420,11	4,1817E-01
420,48	5,7993E-01
420,85	6,7915E-01
421,21	6,7003E-01
421,58	9,7017E-01
421,95	7,6307E-01
422,31	1,0208E00
422,68	1,1723E00
423,05	1,4551E00
423,41	1,3388E00
423,78	1,4913E00
424,15	1,7008E00
424,51	1,8334E00
424,88	1,7609E00
425,24	2,0013E00
425,61	2,1150E00
425,98	2,3742E00
426,34	2,4679E00
426,71	2,6588E00
427,07	2,8365E00
427,44	2,9992E00
427,81	2,9333E00
428,17	3,4573E00
428,54	2,9890E00
428,90	3,8204E00
429,27	3,9855E00
429,64	4,2206E00
430,00	4,5675E00
430,37	4,5736E00
430,73	5,1935E00
431,10	5,8482E00
431,46	6,1324E00
431,83	6,7786E00
432,20	6,9782E00
432,56	7,2478E00
432,93	8,0650E00
433,29	8,5796E00
433,66	9,0221E00
434,02	9,7487E00
434,39	1,1334E01
434,75	1,1924E01
435,12	1,2580E01
435,49	1,3385E01
435,85	1,4561E01
436,22	1,5449E01
436,58	1,6936E01
436,95	1,8184E01
437,31	1,8693E01
437,68	1,9747E01
438,04	2,1893E01
438,41	2,2901E01
438,77	2,4427E01
439,14	2,7721E01
439,50	2,7947E01
439,87	2,8520E01
440,23	3,0674E01
440,60	3,1665E01
440,96	3,4780E01
441,33	3,5549E01
441,69	3,8897E01
442,06	3,9631E01
442,42	4,0389E01
442,78	4,1456E01
443,15	4,3415E01
443,51	4,5126E01
443,88	4,6937E01
444,24	4,6947E01
444,61	4,9935E01
444,97	5,3521E01
445,34	5,3215E01
445,70	5,3952E01
446,07	5,2715E01
446,43	5,4247E01
446,79	5,6924E01
447,16	5,6694E01
447,52	5,6353E01
447,89	5,7482E01
448,25	5,7729E01
448,62	5,7427E01
448,98	5,8504E01
449,34	5,9295E01
449,71	5,7236E01
450,07	5,7761E01
450,44	5,7749E01
450,80	5,8424E01
451,16	5,8056E01
451,53	5,7529E01
451,89	5,7563E01
452,25	5,3466E01
452,62	5,4606E01
452,98	5,3274E01
453,35	5,3510E01
453,71	5,1592E01
454,07	5,1879E01
454,44	5,0143E01
454,80	4,8030E01
455,16	4,6796E01
455,53	4,5439E01
455,89	4,5712E01
456,25	4,1433E01
456,62	4,1006E01
456,98	3,8875E01
457,34	3,8370E01
457,71	3,5073E01
458,07	3,4511E01
458,43	3,2776E01
458,80	3,2036E01
459,16	2,9525E01
459,52	2,8297E01
459,89	2,7610E01
460,25	2,5999E01
460,61	2,5681E01
460,98	2,3907E01
461,34	2,3584E01
461,70	2,1792E01
462,07	1,9886E01
462,43	2,0367E01
462,79	1,9520E01
463,15	1,8365E01
463,52	1,6688E01
463,88	1,6850E01
464,24	1,6112E01
464,61	1,5261E01
464,97	1,4568E01
465,33	1,3829E01
465,69	1,3685E01
466,06	1,3021E01
466,42	1,2089E01
466,78	1,1373E01
467,14	1,1165E01
467,51	1,0620E01
467,87	1,0103E01
468,23	9,8594E00
468,59	9,2286E00
468,95	9,0066E00
469,32	8,6659E00
469,68	8,3031E00
470,04	7,5829E00
470,40	7,3741E00
470,77	6,8053E00
471,13	6,8485E00
471,49	6,3315E00
471,85	5,9103E00
472,21	5,7486E00
472,58	5,4216E00
472,94	5,0997E00
473,30	4,9871E00
473,66	4,8172E00
474,02	4,4188E00
474,39	4,1997E00
474,75	3,9445E00
475,11	3,6340E00
475,47	3,6487E00
475,83	3,2245E00
476,19	3,1732E00
476,56	3,0193E00
476,92	2,7844E00
477,28	2,8313E00
477,64	2,5866E00
478,00	2,3899E00
478,36	2,2316E00
478,72	2,2091E00
479,09	2,0671E00
479,45	1,9200E00
479,81	1,7538E00
480,17	1,7256E00
480,53	1,6387E00
480,89	1,5184E00
481,25	1,5028E00
481,61	1,4567E00
481,97	1,3686E00
482,34	1,3245E00
482,70	1,1899E00
483,06	1,2108E00
483,42	1,1298E00
483,78	1,0470E00
484,14	1,0389E00
484,50	1,0269E00
484,86	9,9462E-01
485,22	8,9260E-01
485,58	8,3823E-01
485,94	8,0418E-01
486,31	7,6997E-01
486,67	7,8328E-01
487,03	6,9186E-01
487,39	6,7221E-01
487,75	6,5399E-01
488,11	5,6704E-01
488,47	6,0130E-01
488,83	5,9025E-01
489,19	4,8220E-01
489,55	4,5667E-01
489,91	3,9421E-01
490,27	3,7238E-01
490,63	4,1445E-01
490,99	3,1756E-01
491,35	3,2369E-01
491,71	2,9080E-01
492,07	2,3846E-01
492,43	2,6842E-01
492,79	2,5993E-01
493,15	1,8836E-01
493,51	1,7315E-01
493,87	2,1115E-01
494,23	1,4410E-01
494,59	1,5426E-01
494,95	1,1474E-01
495,31	7,6633E-02
495,67	1,1649E-01
496,03	1,0075E-01
496,39	1,2085E-01
496,75	7,9391E-02
497,11	7,5498E-02
497,47	7,0451E-02
497,83	6,0025E-02
498,19	7,0849E-02
498,55	-8,5258E-03
498,91	6,9938E-02
499,27	2,9361E-02
499,63	1,4751E-02
499,98	7,2885E-03
500,34	-1,6933E-02
500,70	-2,9027E-02
501,06	-3,5385E-02
501,42	-5,1433E-03
501,78	8,2086E-03
502,14	0,0000E00
502,50	-1,9332E-02
502,86	-1,0186E-02
503,22	1,0039E-03
503,58	-3,0257E-03
503,94	4,0316E-03
504,29	-2,5060E-02
504,65	-3,6803E-02
505,01	7,9849E-03
505,37	-5,2574E-02
505,73	-5,4398E-02
506,09	-4,2685E-02
506,45	-2,1684E-02
506,81	-3,0466E-02
507,16	-2,9995E-02
507,52	-4,7090E-02
507,88	-5,1326E-02
508,24	-4,0453E-02
508,60	-5,2478E-02
508,96	-4,2638E-02
509,32	-6,5001E-02
509,67	-6,8523E-02
510,03	-3,3834E-02
510,39	-3,3281E-02
510,75	-5,9983E-02
511,11	-6,9574E-02
511,47	-1,0168E-01
511,82	-5,5270E-02
512,18	-3,8652E-02
512,54	-5,9758E-02
512,90	-2,8148E-02
513,26	-4,7785E-02
513,61	-4,6850E-02
513,97	-7,6896E-02
514,33	-3,3997E-02
514,69	-5,8033E-02
515,05	-5,3077E-02
515,40	-2,8316E-02
515,76	-5,5847E-02
516,12	-2,1411E-02
516,48	-4,8013E-02
516,83	-3,5822E-02
517,19	-4,5497E-02
517,55	-5,3844E-02
517,91	-4,3045E-02
518,26	-4,1333E-02
518,62	-4,1802E-02
518,98	-1,9402E-03
519,34	-4,2341E-02
519,69	-4,3552E-02
520,05	-7,8099E-02
520,41	-4,8758E-02
520,77	-3,7695E-02
521,12	-1,9651E-02
521,48	-3,9190E-02
521,84	-3,4187E-02
522,19	-4,3891E-02
522,55	-7,8514E-02
522,91	-5,7591E-02
523,27	-5,0434E-02
523,62	-5,2881E-02
523,98	-2,5277E-02
524,34	-8,4181E-02
524,69	-5,0190E-02
525,05	-7,9437E-02
525,41	-5,9870E-02
525,76	-8,4692E-02
526,12	-5,6966E-02
526,48	-5,9105E-02
526,83	-7,5347E-02
527,19	-5,4770E-02
527,55	-4,2545E-02
527,90	-7,3414E-02
528,26	-2,4592E-02
528,62	-2,4982E-02
528,97	-4,9687E-02
529,33	-6,0490E-02
529,69	-4,6311E-02
530,04	-1,5535E-02
530,40	-4,3701E-02
530,76	-6,7239E-03
531,11	-4,3404E-02
531,47	-2,3782E-02
531,82	-3,7288E-02
532,18	-4,1225E-02
532,54	-5,3627E-02
532,89	-3,8248E-02
533,25	-5,4350E-02
533,60	-5,1844E-02
533,96	-5,3674E-02
534,32	-5,0350E-02
534,67	-5,1448E-02
535,03	-8,6017E-02
535,38	-4,3171E-02
535,74	-5,7786E-02
536,10	-4,0921E-02
536,45	-8,3068E-02
536,81	-5,7146E-02
537,16	-4,3001E-02
537,52	-4,4367E-02
537,87	-3,5834E-02
538,23	-9,6346E-02
538,58	-3,6286E-02
538,94	-6,2944E-02
539,30	-1,8619E-02
539,65	-6,4676E-02
540,01	-2,7682E-02
540,36	-5,9460E-02
540,72	-7,3622E-03
541,07	-4,0398E-02
541,43	-8,0252E-02
541,78	-3,4312E-02
542,14	-5,8480E-02
542,49	-2,4889E-02
542,85	-6,6988E-02
543,20	-5,4914E-02
543,56	-4,5315E-02
543,91	-6,3941E-02
544,27	-6,6369E-02
544,62	-3,1600E-02
544,98	-4,7403E-02
545,33	-6,9541E-02
545,69	-5,4785E-02
546,04	-5,6331E-02
546,40	-5,3422E-02
546,75	-1,1825E-02
547,10	-6,5784E-02
547,46	-5,5747E-02
547,81	-5,9607E-02
548,17	-4,8433E-02
548,52	-5,8755E-02
548,88	-3,0673E-02
549,23	-4,3105E-02
549,59	-5,8998E-02
549,94	-5,9955E-02
550,29	-3,5756E-02
550,65	-4,0649E-02
551,00	-3,2942E-02
551,36	-3,2137E-02
551,71	-4,0335E-02
552,06	-8,4161E-02
552,42	-5,2098E-02
552,77	-1,4340E-02
553,13	-2,2361E-02
553,48	-4,5013E-02
553,83	-4,4575E-02
554,19	-1,7302E-02
554,54	-2,6682E-02
554,90	-1,6993E-02
555,25	-2,4145E-02
555,60	-2,1540E-02
555,96	-3,4039E-02
556,31	-1,5214E-02
556,66	-3,1176E-02
557,02	-4,4969E-02
557,37	-3,7812E-02
557,72	-6,2142E-02
558,08	-5,0295E-02
558,43	-5,4554E-02
558,79	-2,2672E-02
559,14	-3,5283E-02
559,49	-5,5246E-02
559,85	-4,3539E-02
560,20	-5,1146E-02
560,55	-6,3114E-02
560,90	-7,3151E-02
561,26	-6,3723E-02
561,61	-9,9505E-02
561,96	-4,6522E-02
562,32	-5,4977E-02
562,67	-4,1687E-02
563,02	-4,8416E-02
563,38	-4,0161E-02
563,73	-5,4092E-02
564,08	-1,0626E-01
564,43	-2,3406E-02
564,79	-3,8462E-02
565,14	-3,8082E-02
565,49	-5,0651E-02
565,84	-4,2264E-02
566,20	-4,6330E-02
566,55	-4,8417E-02
566,90	-3,9403E-02
567,25	-3,1633E-02
567,61	-2,9436E-02
567,96	-3,7381E-02
568,31	-3,8327E-03
568,66	-5,2026E-02
569,02	-6,6111E-02
569,37	-3,1687E-02
569,72	-4,9336E-02
570,07	-5,0296E-02
570,42	-9,9353E-02
570,78	-4,0923E-02
571,13	-6,0104E-02
571,48	-5,4219E-02
571,83	-8,4691E-02
572,18	-8,3232E-02
572,54	-1,8712E-02
572,89	-6,1467E-02
573,24	-2,9488E-02
573,59	-3,8559E-02
573,94	-7,7266E-02
574,30	-4,4099E-02
574,65	-6,0974E-02
575,00	-5,3888E-02
575,35	-7,0213E-02
575,70	-3,7844E-02
576,05	-3,5596E-02
576,40	-2,6013E-02
576,76	-2,5015E-02
577,11	-7,6796E-02
577,46	-3,1158E-02
577,81	-6,9551E-02
578,16	-4,8023E-02
578,51	-4,6108E-02
578,86	-7,8897E-02
579,21	-6,3028E-02
579,57	-8,0971E-02
579,92	-5,7713E-02
580,27	-4,7769E-02
580,62	-3,9454E-02
580,97	-5,4535E-02
581,32	-5,5919E-02
581,67	-5,0736E-02
582,02	-2,5219E-02
582,37	-6,2823E-02
582,72	-4,8188E-02
583,08	-6,0080E-02
583,43	-6,7760E-02
583,78	-6,5152E-02
584,13	-3,1280E-02
584,48	-7,1000E-02
584,83	-4,5262E-02
585,18	-3,4431E-02
585,53	-7,8922E-02
585,88	-6,4020E-02
586,23	-4,9944E-02
586,58	-3,1533E-02
586,93	-6,7130E-02
587,28	-6,0520E-02
587,63	-7,4360E-02
587,98	-5,7982E-02
588,33	-5,8824E-02
588,68	-5,9273E-02
589,03	-4,8838E-02
589,38	-4,6076E-02
589,73	-8,8678E-02
590,08	-6,1189E-02
590,43	-5,9623E-02
590,78	-1,7256E-02
591,13	-4,9077E-02
591,48	-5,5001E-02
591,83	-8,6406E-02
592,18	-4,4886E-02
592,53	-8,3984E-02
592,88	-6,1537E-02
593,23	-4,8319E-02
593,58	-5,7644E-02
593,93	-6,0230E-02
594,28	-4,9301E-02
594,63	-5,2625E-02
594,98	-4,7426E-02
595,33	-7,8504E-02
595,68	-2,6913E-02
596,02	-6,7354E-02
596,37	-2,6801E-02
596,72	-5,0643E-02
597,07	-3,4429E-02
597,42	-7,9370E-02
597,77	-4,1591E-02
598,12	-9,1815E-02
598,47	-1,1431E-01
598,82	-8,8160E-02
599,17	-4,1822E-02
599,52	-1,3687E-02
599,86	-7,5685E-02
600,21	-8,0291E-02
600,56	-6,3329E-02
600,91	-7,4272E-02
601,26	-2,6561E-02
601,61	-5,5064E-02
601,96	-6,7022E-02
602,30	-5,4765E-02
602,65	-8,7437E-02
603,00	-5,0384E-02
603,35	-6,0340E-02
603,70	-3,9616E-02
604,05	-5,5790E-02
604,40	-4,0971E-02
604,74	-6,0748E-02
605,09	-3,5872E-02
605,44	-5,6502E-02
605,79	-7,8786E-02
606,14	-4,2486E-02
606,48	-4,1452E-02
606,83	-5,0667E-02
607,18	-3,3140E-02
607,53	-2,8934E-02
607,88	-4,1035E-02
608,22	-2,6531E-02
608,57	-6,6309E-02
608,92	-6,0235E-02
609,27	-1,0665E-01
609,62	-7,7442E-02
609,96	-6,8112E-02
610,31	-4,0470E-02
610,66	-5,6592E-02
611,01	-6,9031E-02
611,35	-9,6682E-02
611,70	-7,6726E-02
612,05	-5,9633E-02
612,40	-8,0863E-02
612,74	-6,2473E-02
613,09	-8,1646E-02
613,44	-6,4955E-02
613,79	-6,6057E-02
614,13	-8,0597E-02
614,48	-7,4075E-02
614,83	-6,1850E-02
615,17	-1,1153E-01
615,52	-6,0138E-02
615,87	-4,4764E-02
616,22	-7,5683E-02
616,56	-4,9907E-02
616,91	-7,0379E-02
617,26	-5,4517E-02
617,60	-5,3476E-02
617,95	-4,9114E-02
618,30	-8,1732E-02
618,64	-8,7556E-02
618,99	-6,6336E-02
619,34	-2,4223E-02
619,68	-9,5432E-02
620,03	-1,2569E-01
620,38	-9,3671E-02
620,72	-4,3460E-02
621,07	-6,4734E-02
621,42	-8,2162E-02
621,76	-3,1632E-02
622,11	-7,4870E-02
622,45	-3,0834E-02
622,80	-2,9582E-02
623,15	-7,7899E-02
623,49	-5,2139E-02
623,84	-4,9949E-02
624,18	-4,9922E-02
624,53	-5,3601E-02
624,88	-6,1436E-02
625,22	-1,8909E-02
625,57	-7,8781E-02
625,91	-4,4182E-02
626,26	-3,8047E-02
626,61	-6,9141E-02
626,95	-3,5587E-02
627,30	-3,4331E-02
627,64	-4,9508E-02
627,99	-2,7971E-02
628,33	-7,5608E-02
628,68	-6,4851E-02
629,03	-7,9500E-02
629,37	-5,5885E-02
629,72	-7,2354E-02
630,06	-4,8788E-02
630,41	-3,3725E-02
630,75	-6,6340E-02
631,10	-6,2445E-02
631,44	-8,0869E-02
631,79	-2,6022E-02
632,13	-9,0441E-02
632,48	-1,0224E-01
632,82	-4,9720E-02
633,17	-4,3619E-02
633,51	-1,1472E-01
633,86	-6,5729E-02
634,20	-6,5798E-02
634,55	-6,6434E-02
634,89	-7,5937E-02
635,24	-1,1802E-01
635,58	-5,1609E-02
635,93	-5,6012E-02
636,27	-1,0281E-01
636,62	-8,0314E-02
636,96	-6,0232E-02
637,30	-1,0455E-01
637,65	-8,1861E-02
637,99	-1,5511E-01
638,34	-7,5284E-02
638,68	-9,5747E-02
639,03	-4,4422E-02
639,37	-1,1895E-01
639,71	-1,0339E-01
640,06	-5,0177E-02
640,40	-9,8439E-02
640,75	-5,4606E-02
641,09	-3,3096E-02
641,44	-7,5172E-02
641,78	-4,6696E-02
642,12	-9,0947E-02
642,47	-6,7892E-02
642,81	-3,5872E-02
643,15	-5,5501E-02
643,50	-4,6903E-02
643,84	-6,1985E-02
644,19	-8,4661E-02
644,53	-7,6661E-02
644,87	-1,0322E-01
645,22	-6,2898E-02
645,56	-6,0129E-02
645,90	-7,1304E-02
646,25	-6,4729E-02
646,59	-8,4248E-02
646,93	-1,3044E-01
647,28	-1,4776E-01
647,62	-8,9118E-02
647,96	-5,8282E-02
648,31	-8,7717E-02
648,65	-8,3816E-02
648,99	-5,8451E-02
649,34	-1,0934E-01
649,68	-6,5516E-02
650,02	-1,2354E-01
650,36	-6,0570E-02
650,71	-9,7996E-02
651,05	-9,6215E-02
651,39	-6,2083E-02
651,74	-9,1760E-02
652,08	-4,6283E-02
652,42	-8,0205E-02
652,76	-1,6215E-01
653,11	-1,2546E-01
653,45	-6,7582E-02
653,79	-6,5281E-02
654,13	-7,6387E-02
654,48	-4,8741E-02
654,82	-6,2655E-02
655,16	-6,0848E-02
655,50	-6,8783E-02
655,85	-4,9474E-02
656,19	-8,0971E-02
656,53	-3,0148E-02
656,87	-6,4531E-02
657,21	-2,2471E-02
657,56	-1,0374E-01
657,90	-1,2255E-01
658,24	-1,4314E-01
658,58	-8,2017E-02
658,92	-8,5646E-02
659,27	-1,1371E-01
659,61	-9,3378E-02
659,95	-1,1083E-01
660,29	-4,9178E-02
660,63	-8,2921E-02
660,97	-1,1869E-01
661,32	-6,2223E-02
661,66	-6,5250E-02
662,00	-1,4373E-01
662,34	-1,3551E-01
662,68	-1,2338E-01
663,02	-1,0644E-01
663,37	-1,1348E-01
663,71	-8,6000E-02
664,05	-1,1853E-01
664,39	-1,2253E-01
664,73	-7,6505E-02
665,07	-6,0714E-02
665,41	-1,0380E-01
665,75	-9,1097E-02
666,09	-7,2214E-02
666,44	-1,1686E-01
666,78	-1,1641E-01
667,12	-7,7828E-02
667,46	-9,3861E-02
667,80	-1,0286E-01
668,14	-8,9536E-02
668,48	-4,4498E-02
668,82	-4,7882E-02
669,16	-6,9711E-02
669,50	-7,2642E-02
669,84	-5,7872E-02
670,18	-2,1741E-02
670,52	-4,8383E-02
670,86	-6,0237E-02
671,20	-1,1604E-01
671,54	-7,7642E-02
671,88	-7,8447E-02
672,22	-1,3149E-01
672,57	-6,9980E-02
672,91	-1,0933E-01
673,25	-1,5167E-01
673,59	-1,0629E-01
673,93	-7,1281E-02
674,27	-1,4641E-01
674,61	-6,2721E-02
674,95	-7,7422E-02
675,28	-8,3737E-02
675,62	-3,8697E-02
675,96	-1,0544E-01
676,30	-7,7060E-02
676,64	-9,7163E-02
676,98	-1,3370E-01
677,32	-1,1542E-01
677,66	-1,2704E-01
678,00	-7,8463E-02
678,34	-1,1590E-01
678,68	-1,0225E-01
679,02	-1,1140E-01
679,36	-1,0270E-01
679,70	-3,4810E-02
680,04	-5,4586E-02
680,38	-8,8930E-02
680,72	-7,0111E-02
681,06	-1,0487E-01
681,39	-1,2158E-01
681,73	-5,1642E-02
682,07	-7,7837E-02
682,41	-1,0654E-01
682,75	-1,2453E-01
683,09	-1,4565E-01
683,43	-4,1575E-02
683,77	-3,2010E-02
684,11	-9,8434E-02
684,44	-3,2254E-02
684,78	-1,6415E-01
685,12	-7,2365E-02
685,46	-9,1573E-02
685,80	-1,0781E-01
686,14	-1,3600E-01
686,48	-8,1301E-02
686,81	-1,4129E-01
687,15	-1,5170E-01
687,49	-1,2619E-01
687,83	-1,5894E-01
688,17	-1,0614E-01
688,51	-1,8555E-01
688,84	-1,1700E-01
689,18	-9,5026E-02
689,52	-1,1272E-01
689,86	-1,3845E-01
690,20	-1,7957E-01
690,53	-7,2802E-02
690,87	-9,1494E-02
691,21	-1,2675E-01
691,55	-9,0350E-02
691,88	-1,0941E-01
692,22	-9,1433E-02
692,56	-8,5347E-02
692,90	-1,1154E-01
693,23	-1,1384E-01
693,57	-1,4083E-01
693,91	-1,0041E-01
694,25	-7,9740E-02
694,58	-1,7525E-01
694,92	-1,2835E-01
695,26	-8,2267E-03
695,60	-1,3962E-01
695,93	-1,0162E-01
696,27	-1,4061E-01
696,61	-1,1567E-01
696,94	-2,7448E-02
697,28	-1,2227E-01
697,62	-1,3060E-01
697,96	-1,6709E-01
698,29	-1,3384E-01
698,63	-1,4161E-01
698,97	-8,4747E-02
699,30	-6,1359E-02
699,64	-9,6207E-02
699,98	-1,0690E-01
700,31	-2,1972E-01
700,65	-1,3405E-01
700,99	-2,2676E-01
701,32	-1,7600E-01
701,66	-1,8509E-01
702,00	-8,4449E-02
702,33	-1,3369E-01
702,67	-9,9842E-02
703,00	-1,1399E-01
703,34	-5,9218E-02
703,68	-3,7379E-02
704,01	-1,5204E-01
704,35	-5,7300E-02
704,69	-9,1837E-02
705,02	-2,8575E-02
705,36	-9,2710E-02
705,69	-1,0432E-01
706,03	-1,4839E-01
706,36	-1,4753E-01
706,70	-1,5080E-01
707,04	-1,2076E-01
707,37	-1,5675E-01
707,71	-1,3464E-01
708,04	-4,9580E-02
708,38	-1,6780E-01
708,71	-2,0012E-01
709,05	-5,4548E-02
709,39	-9,5310E-02
709,72	-6,3628E-02
710,06	-6,8645E-02
710,39	-1,6138E-01
710,73	-7,5551E-02
711,06	-1,4000E-01
711,40	-1,1675E-01
711,73	-1,0422E-01
712,07	-1,3219E-01
712,40	-1,9620E-01
712,74	-9,0360E-02
713,07	-1,0906E-01
713,41	-2,1353E-01
713,74	-1,5635E-01
714,08	-1,7332E-01
714,41	-1,4830E-01
714,75	-1,7802E-01
715,08	-1,6868E-01
715,42	-8,9828E-02
715,75	-1,3732E-01
716,08	-1,7646E-01
716,42	-1,7754E-01
716,75	-1,1568E-01
717,09	-1,0134E-01
717,42	-1,1943E-01
717,76	-1,0296E-01
718,09	-1,5812E-01
718,43	-2,0009E-01
718,76	-1,7029E-01
719,09	-1,4466E-01
719,43	-1,2826E-01
719,76	-1,5460E-01
720,10	-5,0831E-02
720,43	-7,2804E-02
720,76	-1,4071E-01
721,10	-1,6172E-01
721,43	-1,0445E-01
721,76	-1,3905E-01
722,10	-2,0667E-01
722,43	-1,1538E-01
722,77	-1,5517E-01
723,10	-1,4086E-01
723,43	-8,8337E-02
723,77	-1,0828E-01
724,10	-7,6613E-02
724,43	-1,1841E-01
724,77	-1,0426E-01
725,10	-1,6727E-01
725,43	-1,0434E-01
725,77	-1,8402E-01
726,10	-2,2483E-01
726,43	-2,1680E-01
726,77	-1,0565E-01
727,10	-9,8781E-02
727,43	-8,1694E-02
727,77	-9,3856E-02
728,10	-1,2820E-01
728,43	-2,0108E-01
728,76	-1,4186E-01
729,10	-1,5417E-01
729,43	-3,8687E-02
729,76	-1,1176E-01
730,09	-1,8185E-01
730,43	-1,7475E-01
730,76	-5,4968E-02
731,09	-1,7058E-01
731,42	-1,5431E-01
731,76	-1,3409E-01
732,09	-1,4500E-01
732,42	-1,2736E-01
732,75	-1,0081E-01
733,09	-1,7177E-01
733,42	-1,2816E-01
733,75	-8,6053E-02
734,08	-8,3612E-02
734,41	-1,4041E-01
734,75	-1,1291E-01
735,08	-1,0012E-01
735,41	-2,6899E-01
735,74	-2,4308E-01
736,07	-2,4643E-01
736,41	-1,1488E-01
736,74	-1,9902E-01
737,07	-2,1446E-01
737,40	-1,3253E-01
737,73	-1,3647E-01
738,06	-1,7138E-01
738,40	-2,3183E-01
738,73	-7,3211E-02
739,06	-2,4033E-01
739,39	-2,5103E-01
739,72	-1,9848E-01
740,05	-1,8435E-01
740,38	-1,3817E-01
740,72	-1,3210E-01
741,05	-2,0693E-01
741,38	-1,8363E-01
741,71	-1,2715E-01
742,04	-2,1438E-01
742,37	-9,5374E-02
742,70	-2,0241E-01
743,03	-1,5356E-01
743,36	-1,1548E-01
743,69	-6,2379E-02
744,02	-2,1758E-01
744,36	-2,2742E-01
744,69	-2,4156E-01
745,02	-1,8649E-01
745,35	-1,9641E-01
745,68	-2,1168E-01
746,01	-1,4852E-01
746,34	-4,5191E-02
746,67	-2,0993E-01
747,00	-2,5075E-01
747,33	-1,3637E-01
747,66	-3,0139E-01
747,99	-1,5721E-01
748,32	-1,6300E-01
748,65	-1,9938E-01
748,98	-1,7057E-01
749,31	-2,5229E-01
749,64	-1,9334E-01
749,97	-1,8065E-01
750,30	-1,5916E-01
750,63	-2,2780E-01
750,96	-2,5105E-01
751,29	-2,1883E-01
751,62	-2,1199E-01
751,95	-1,2425E-01
752,28	-1,3032E-01
752,61	-1,2055E-01
752,94	-1,1113E-01
753,27	-1,3110E-01
753,60	-1,4534E-01
753,92	-2,8122E-01
754,25	-1,1622E-01
754,58	-2,0799E-01
754,91	-1,8139E-01
755,24	-1,1420E-01
755,57	-2,1243E-01
755,90	-1,8664E-01
756,23	-3,1304E-01
756,56	-2,6000E-01
756,89	-1,2850E-01
757,22	-2,8668E-01
757,54	-2,0658E-01
757,87	-1,2454E-01
758,20	-9,2996E-02
758,53	-1,8757E-01
758,86	-2,7117E-01
759,19	-1,3344E-01
759,52	-1,9039E-01
759,84	-2,4664E-01
760,17	-2,4423E-01
760,50	-2,8879E-01
760,83	-2,5890E-01
761,16	-3,1619E-01
761,49	-3,1891E-01
761,81	-1,7820E-01
762,14	-2,6390E-01
762,47	-1,8314E-01
762,80	-1,1033E-02
763,13	-3,9546E-01
763,45	-2,9801E-01
763,78	-2,6070E-01
764,11	-1,6192E-01
764,44	-1,6944E-01
764,77	-1,2385E-01
765,09	-1,4215E-01
765,42	-2,6248E-01
765,75	-2,3157E-01
766,08	-9,1559E-02
766,40	-1,5370E-01
766,73	-1,8754E-01
767,06	-2,6277E-01
767,39	-1,6981E-01
767,71	-3,2217E-01
768,04	-2,6129E-01
768,37	-2,2124E-01
768,70	-2,9981E-01
769,02	-1,6134E-01
769,35	-2,3426E-01
769,68	-3,0038E-01
770,00	-3,3878E-01
770,33	-1,9419E-01
770,66	-7,6332E-02
770,99	-2,8643E-01
771,31	-2,4877E-01
771,64	-1,1697E-01
771,97	-2,1721E-01
772,29	-2,9455E-01
772,62	-3,4800E-01
772,95	-1,6862E-01
773,27	-2,7897E-01
773,60	-2,5757E-01
773,93	-2,2322E-01
774,25	-2,8903E-01
774,58	-2,1832E-01
774,90	-2,2182E-01
775,23	-1,5701E-01
775,56	-2,2084E-01
775,88	-2,3498E-01
776,21	-3,0207E-01
776,54	-1,0279E-01
776,86	-2,9810E-01
777,19	-2,5271E-01
777,51	-1,8315E-01
777,84	-1,3870E-01
778,16	-2,0117E-01
778,49	-2,9840E-01
778,82	-1,5797E-01
779,14	-2,2511E-01
779,47	-1,6751E-01
779,79	-1,3735E-01
780,12	-1,9746E-01
780,44	-1,8375E-01
780,77	-2,2353E-01
781,10	-2,6648E-01
781,42	-1,6709E-01
781,75	-1,2302E-01
782,07	-2,4710E-01
782,40	-3,5274E-01
782,72	-1,6072E-01
783,05	-1,3489E-01
783,37	-2,4124E-01
783,70	-1,5776E-01
784,02	-2,8271E-01
784,35	-1,3486E-01
784,67	-3,2507E-01
785,00	-3,0965E-01
785,32	-3,9951E-01
785,65	-4,5349E-01
785,97	-3,9930E-01
786,30	-4,3237E-01
786,62	-2,3037E-01
786,94	-2,5474E-01
787,27	-2,1636E-01
787,59	-3,7663E-01
787,92	-3,2029E-01
788,24	-2,9313E-01
788,57	-1,8545E-01
788,89	-7,5993E-01
789,22	-2,8771E-01
789,54	-5,2581E-01
789,86	-2,3469E-01
790,19	-3,3826E-01
790,51	-2,2344E-01
790,84	-2,4366E-01
791,16	-3,3831E-01
791,48	-2,8780E-01
791,81	-3,3793E-01
792,13	-3,3701E-01
792,45	-1,8161E-01
792,78	-2,4041E-01
793,10	-1,7186E-01
793,43	-2,5394E-01
793,75	-1,1753E-01
794,07	-2,5229E-01
794,40	-3,1863E-01
794,72	-2,0560E-01
795,04	-3,1144E-01
795,37	-1,1223E-01
795,69	-1,9673E-01
796,01	-3,9701E-01
796,34	-1,6590E-01
796,66	-2,2912E-01
796,98	-4,3436E-01
797,30	-3,2764E-01
797,63	-2,7267E-01
797,95	-2,2352E-01
798,27	-3,8793E-01
798,60	-2,3576E-01
798,92	-1,6209E-01
799,24	-3,5976E-01
799,56	-2,0727E-01
799,89	-2,9259E-01
800,21	-5,3272E-02
800,53	-5,7833E-02
800,85	-1,6587E-01
801,18	-5,3149E-02
801,50	-3,3442E-01
801,82	-3,0986E-01
802,14	-3,2872E-01
802,47	-2,8604E-01
802,79	-1,5894E-01
803,11	-3,1336E-01
803,43	-2,6573E-01
803,75	-3,6483E-01
804,08	-3,1268E-01
804,40	-2,4844E-01
804,72	-2,2135E-01
805,04	-4,2442E-01
805,36	-2,5711E-01
805,69	-2,4841E-01
806,01	-3,6225E-01
806,33	-3,0501E-01
806,65	-7,3583E-02
806,97	-3,9619E-01
807,29	-1,1874E-01
807,62	-3,3338E-01
807,94	-3,2788E-01
808,26	-3,3320E-01
808,58	-2,2143E-01
808,90	-2,7855E-01
809,22	-3,3483E-01
809,54	-3,4382E-01
809,86	-4,0441E-01
810,18	-1,0113E-01
810,51	-3,7996E-01
810,83	-8,2709E-01
811,15	-2,4273E-01
811,47	-3,1620E-01
811,79	-2,7283E-01
812,11	-4,1601E-01
812,43	-3,2015E-01
812,75	-4,6567E-01
813,07	-2,3990E-01
813,39	-1,9289E-01
813,71	-1,2916E-01
814,03	-3,7226E-01
814,35	-2,0770E-01
814,67	-4,5476E-01
814,99	-3,8044E-01
815,31	-2,9874E-01
815,64	-3,7175E-01
815,96	-2,5093E-01
816,28	-2,6345E-01
816,60	-3,3129E-01
816,92	-2,8007E-01
817,24	-2,2230E-01
817,56	-3,7919E-01
817,88	-3,0682E-01
818,19	-2,8870E-01
818,51	-4,1461E-01
818,83	-4,3455E-01
819,15	-3,5272E-01
819,47	-4,9280E-01
819,79	-5,0984E-01
820,11	-4,6226E-01
820,43	-3,6790E-01
820,75	-4,1972E-01
821,07	-2,4190E-01
821,39	-4,9515E-01
821,71	-3,0278E-01
822,03	-4,0050E-01
822,35	-4,4617E-01
822,67	-2,6502E-01
822,99	-1,9880E-01
823,31	-3,9414E-01
823,62	-2,9411E-01
823,94	-1,4839E-01
824,26	-1,6686E-01
824,58	-2,4077E-01
824,90	-3,4761E-01
825,22	-3,1277E-01
825,54	-3,9636E-01
825,86	-2,1341E-01
826,17	-2,3963E-01
826,49	-3,3724E-01
826,81	-4,1640E-01
827,13	-2,9746E-01
827,45	-3,0948E-01
827,77	-2,5974E-01
828,08	-6,2914E-01
828,40	-3,5611E-01
828,72	-5,2088E-01
829,04	-3,4829E-01
829,36	-3,0949E-01
829,67	-2,7926E-01
829,99	-4,2999E-01
830,31	-2,8456E-01
830,63	-3,7924E-01
830,95	-4,5860E-01
831,26	-5,5730E-01
831,58	-3,4989E-01
831,90	-4,1750E-01
832,22	-3,1869E-01
832,53	-3,4529E-01
832,85	-2,6762E-01
833,17	-3,1075E-01
833,49	-1,6008E-01
833,80	-2,5028E-01
834,12	-4,1757E-01
834,44	-6,0959E-01
834,76	-4,6576E-01
835,07	-1,7629E-01
835,39	-2,2944E-01
835,71	-3,8982E-01
836,02	-5,3850E-01
836,34	-2,1694E-01
836,66	-4,9750E-01
836,97	-2,1872E-01
837,29	-2,5371E-01
837,61	-3,1424E-01
837,93	-3,7200E-01
838,24	-2,8025E-01
838,56	-4,0225E-01
838,88	-4,5010E-01
839,19	-4,1368E-01
839,51	-3,7510E-01
839,82	-1,8372E-01
840,14	-3,2377E-01
840,46	-2,9722E-01
840,77	-4,4075E-01
841,09	-2,0668E-01
841,41	-1,9235E-01
841,72	-2,0798E-01
842,04	-2,6454E-01
842,35	-4,6128E-01
842,67	-6,1335E-01
842,99	-3,0103E-01
843,30	-3,7801E-01
843,62	-5,3688E-01
843,93	-3,5065E-01
844,25	-4,0225E-01
844,56	-2,7912E-01
844,88	-3,1782E-01
845,20	-5,1156E-01
845,51	-3,2350E-01
845,83	-3,1612E-01
846,14	-2,0003E-01
846,46	-3,5363E-01
846,77	-4,4846E-01
847,09	-2,4685E-01
847,40	-1,5708E-01
847,72	-4,0300E-01
848,03	-5,9216E-01
848,35	-4,1938E-01
848,66	-3,8590E-01
848,98	-3,8308E-01
849,29	-1,4505E-01
849,61	-4,8516E-01
849,92	-7,1024E-01
850,24	-3,2945E-01
850,55	-8,5163E-02
850,87	-3,7453E-01
851,18	-3,5379E-01
851,50	-6,5576E-01
851,81	-1,5001E-01
852,12	-7,7980E-01
852,44	-3,3146E-01
852,75	-7,7360E-01
853,07	-6,1730E-01
853,38	-4,8482E-01
853,70	-2,7630E-01
854,01	-6,6917E-01
854,32	-4,0802E-01
854,64	-3,4605E-01
854,95	-5,9790E-01
855,27	-4,5659E-01
855,58	-6,3089E-01
855,89	-4,4032E-01
856,21	-4,6223E-01
856,52	-5,8815E-01
856,83	-4,6654E-01
857,15	-2,7398E-01
857,46	-3,6927E-01
857,77	-6,0298E-01
858,09	-3,6287E-01
858,40	-6,6142E-01
858,71	-5,5998E-01
859,03	-1,7337E-01
859,34	-6,4516E-01
859,65	-5,5961E-01
859,97	-8,0972E-01
860,28	-6,8344E-01
860,59	-5,3965E-01
860,91	-5,4879E-01
861,22	-4,2764E-01
861,53	-5,7337E-01
861,84	-1,2712E-01
862,16	-3,7727E-01
862,47	-4,5006E-01
862,78	-4,9763E-01
863,10	-6,7342E-01
863,41	-8,4069E-01
863,72	-6,0439E-01
864,03	-6,1065E-01
864,35	-5,0250E-01
864,66	-5,5795E-01
864,97	-4,9073E-01
865,28	-6,7113E-01
865,59	-8,8929E-01
865,91	-5,3149E-01
866,22	-6,4792E-01
866,53	-2,8893E-01
866,84	-1,0726E00
867,15	-6,7452E-01
867,47	-7,9264E-01
867,78	-5,0775E-01
868,09	-5,0096E-01
868,40	-8,9594E-02
868,71	-1,8866E-01
869,02	-6,2957E-01
869,34	-9,0958E-01
869,65	-2,3833E-01
869,96	-4,6230E-01
870,27	-7,7681E-01
870,58	-9,0856E-01
870,89	-1,0815E00
871,20	-6,0615E-01
871,52	-7,4374E-01
871,83	-9,8860E-01
872,14	-7,7226E-01
872,45	-7,4218E-01
872,76	-3,9132E-01
873,07	-2,5646E-01
873,38	-5,8877E-01
873,69	-7,6940E-01
874,00	-7,8314E-01
874,31	-4,4330E-01
874,62	-8,6790E-01
874,94	-3,0603E-01
875,25	-5,7086E-01
875,56	-5,8356E-01
875,87	-5,7542E-01
876,18	-4,6444E-01
876,49	-7,5322E-01
876,80	-8,7053E-01
877,11	-8,8850E-01
877,42	-6,2908E-01
877,73	-9,9146E-01
878,04	-5,5431E-01
878,35	-7,3478E-01
878,66	-9,2147E-01
878,97	-6,4232E-01
879,28	-1,1165E00
879,59	-8,1952E-01
879,90	-5,6370E-01
880,21	-9,9198E-01
880,52	-1,0653E00
880,83	-4,7150E-01
881,14	-6,6235E-01
881,45	-9,5045E-01
881,76	-7,6051E-01
882,07	-7,4058E-01
882,37	-7,4256E-01
882,68	-1,0854E00
882,99	-5,7296E-01
883,30	-7,2571E-01
883,61	-4,5300E-01
883,92	-1,1098E00
884,23	-9,0962E-01
884,54	-7,9876E-01
884,85	-6,0691E-01
885,16	-8,9053E-01
885,47	-6,5652E-01
885,77	-5,5574E-01
886,08	-8,2371E-01
886,39	-7,3845E-01
886,70	-3,3117E-01
887,01	-9,5379E-01
887,32	-4,6632E-01
887,63	-1,0063E00
887,93	-8,3978E-01
888,24	-8,7401E-01
888,55	-4,4947E-01
888,86	-9,1757E-01
889,17	-7,3541E-01
889,47	-6,1508E-01
889,78	-7,6441E-01
890,09	-6,4507E-01
890,40	-8,8831E-01
890,71	-6,3864E-01
891,01	-4,1668E-01
891,32	-3,6748E-01
891,63	-6,0073E-01
891,94	-5,8980E-01
892,25	-5,2038E-01
892,55	-6,9766E-01
892,86	-3,5712E-01
893,17	-8,0583E-01
893,48	-3,8793E-01
893,78	-3,6959E-01
894,09	-8,8257E-01
894,40	-5,7545E-01
894,70	-1,1615E00
895,01	-9,1955E-01
895,32	-3,1688E-01
895,63	-9,6292E-01
895,93	-9,4016E-01
896,24	-7,1640E-01
896,55	-4,5248E-01
896,85	-4,2534E-01
897,16	-7,7149E-01
897,47	-4,7064E-01
897,77	-5,6188E-01
898,08	-7,6146E-01
898,39	-5,4841E-01
898,69	-6,1653E-01
899,00	-6,1799E-01
899,31	-7,0680E-01
899,61	-1,2397E00
899,92	-6,1048E-01
900,23	-8,4507E-01
900,53	-8,2633E-01
900,84	-8,6613E-01
901,14	-1,4962E00
901,45	-7,6370E-01
901,76	-1,0180E00
902,06	-6,7797E-01
902,37	-5,6530E-01
902,67	-1,0604E00
902,98	-7,9824E-01
903,29	-4,0603E-01
903,59	-3,8364E-01
903,90	-6,9283E-01
904,20	-7,6730E-01
904,51	-5,3697E-01
904,81	-7,1508E-01
905,12	-7,9558E-01
905,42	-1,0282E00
905,73	-1,0631E00
906,03	-3,6140E-01
906,34	-5,4136E-01
906,64	-1,0211E00
906,95	-6,4092E-01
907,25	-6,2183E-01
907,56	-1,0082E00
907,86	-5,3380E-01
908,17	-5,6591E-01
908,47	-6,9031E-01
908,78	-4,4579E-01
909,08	-1,1137E00
909,39	-8,9915E-01
909,69	-1,2052E00
910,00	-4,8232E-01
910,30	-1,0547E00
910,61	-7,8425E-01
910,91	-6,6498E-01
911,21	-5,5677E-01
911,52	-1,2122E00
911,82	-1,3524E00
912,13	-4,9960E-01
912,43	-9,7347E-01
912,74	-1,0872E00
913,04	-7,5936E-01
913,34	-1,0683E00
913,65	-3,8821E-01
913,95	-1,0084E00
914,25	-9,6009E-01
914,56	-6,6889E-01
914,86	-1,1233E00
915,17	-4,3447E-01
915,47	-1,0431E00
915,77	-8,5879E-01
916,08	-1,3674E00
916,38	-1,3009E00
916,68	-7,1250E-01
916,99	-1,5902E00
917,29	-1,3381E00
917,59	-5,4023E-01
917,90	-7,8793E-01
918,20	-1,2018E00
918,50	-1,1487E00
918,80	-1,4457E00
919,11	-5,9760E-01
919,41	-1,1764E00
919,71	-9,9875E-01
920,02	-8,4917E-01
920,32	-1,1213E00
920,62	-1,0101E00
920,92	-4,7202E-01
921,23	-1,0961E00
921,53	-1,3836E00
921,83	-1,4319E00
922,13	-1,0623E00
922,44	-1,3864E00
922,74	-8,3343E-01
923,04	-5,5279E-01
923,34	-1,6026E00
923,64	-1,2884E00
923,95	-7,2669E-01
924,25	-9,1473E-01
924,55	-7,9714E-01
924,85	-1,3532E00
925,15	-9,0179E-01
925,46	-9,6607E-01
925,76	-1,4486E00
926,06	-9,6832E-01
926,36	-1,0995E00
926,66	-8,6346E-01
926,96	-1,2430E00
927,26	-1,2837E00
927,57	-9,8477E-01
927,87	-8,8923E-01
928,17	-9,1680E-01
928,47	-1,3796E00
928,77	-1,2098E00
929,07	-6,7819E-01
929,37	-8,0461E-01
929,67	-1,2393E00
929,98	-5,5636E-01
930,28	-1,3709E00
930,58	-8,2300E-01
930,88	-1,4720E00
931,18	-1,3469E00
931,48	-1,2035E00
931,78	-1,1270E00
932,08	-1,0027E00
932,38	-7,3368E-01
932,68	-1,0051E00
932,98	-1,2128E00
933,28	-1,0209E00
933,58	-1,7240E00
933,88	-1,0184E00
934,18	-1,2905E00
934,48	-1,8994E00
934,78	-9,1033E-01
935,08	-1,3097E00
935,38	-8,9938E-01
935,68	-1,1000E00
935,98	-1,1586E00
936,28	-9,2790E-01
936,58	-1,8363E00
936,88	-1,3301E00
937,18	-1,1319E00
937,48	-2,7115E-01
937,78	3,6138E-01
938,08	-9,6471E-01
938,38	-1,5209E00
938,68	-1,3929E00
938,98	-1,1162E00
939,28	-1,5221E00
939,57	-1,2782E00
939,87	-1,2920E00
940,17	-8,7782E-01
940,47	-1,3754E00
940,77	-6,9476E-01
941,07	-7,7328E-01
941,37	-7,6096E-01
941,67	-4,1770E-01
941,97	-1,3065E00
942,26	-8,9591E-01
942,56	-1,2585E00
942,86	-8,8367E-01
943,16	-1,1696E00
943,46	-2,4790E00
943,76	-1,4829E00
944,06	-2,0609E00
944,35	-1,7095E00
944,65	-1,9940E00
944,95	-1,9015E00
945,25	-2,2812E00
945,55	-1,7527E00
945,84	-1,1981E00
946,14	-1,0013E00
946,44	-2,0999E00
946,74	-7,7533E-01
947,03	-1,6187E00
947,33	-1,0996E00
947,63	-2,9305E00
947,93	-9,9410E-01
948,23	-1,6216E00
948,52	-1,0297E00
948,82	-1,7532E00
949,12	-2,0525E00
949,41	-1,0810E00
949,71	-1,9060E00
950,01	-2,2463E00
950,31	-1,6684E00
950,60	-1,7416E00
950,90	-7,2613E-01
951,20	-2,1069E00
951,49	-1,2880E00
951,79	-2,5451E00
952,09	-2,2649E00
952,38	-2,0378E00
952,68	-1,9638E00
952,98	-2,0670E00
953,27	-1,6683E00
953,57	-2,5714E00
953,87	-2,3807E00
954,16	-2,9795E00
954,46	-2,0986E00
954,76	-8,4527E-01
955,05	-2,3769E00
955,35	-1,0354E00
955,64	-2,7187E00
955,94	-2,2535E00
956,24	-1,3363E00
956,53	-4,1145E00
956,83	-2,8232E00
957,12	-2,9493E00
957,42	-2,3854E00
957,72	-9,7396E-01
958,01	-1,3511E00
958,31	-2,8508E00
958,60	-1,0103E00
958,90	-1,6530E00
959,19	-1,6681E00
959,49	-2,8676E00
959,78	-2,7430E00
960,08	-3,0969E00
960,37	-2,8194E00
960,67	-2,4944E00
960,96	-2,1645E00
961,26	-3,2236E00
961,55	-1,9352E00
961,85	-1,4817E00
962,14	-8,7266E-01
962,44	-1,5744E00
962,73	-1,7638E00
963,03	-2,1304E00
963,32	-2,5099E00
963,62	-2,3684E00
963,91	-2,0284E00
964,21	-1,5592E00
964,50	-3,6112E00
964,80	-3,2200E00
965,09	-1,7468E00
965,38	-2,6078E00
965,68	-4,3308E00
965,97	-3,8019E00
966,27	-2,7843E00
966,56	-3,9912E00
966,85	-2,5959E00
967,15	-3,3954E00
967,44	-2,0681E00
967,74	-2,2597E00
968,03	-3,0849E00
968,32	-4,0835E00
968,62	-2,3278E00
968,91	-4,0123E00
969,20	-2,4754E00
969,50	-1,8144E00
969,79	-3,5475E00
970,08	-3,5808E00
970,38	-1,8422E00
970,67	-3,1140E00
970,96	-1,8421E00
971,26	-2,4561E00
971,55	-2,9615E00
971,84	-3,6797E00
972,13	-2,8329E00
972,43	-3,2418E00
972,72	-2,9976E00
973,01	-2,9959E00
973,31	-3,3038E00
973,60	-3,8838E00
973,89	-3,1669E00
974,18	-3,1391E00
974,48	-2,1002E00
974,77	-2,5557E00
975,06	-3,2241E00
975,35	-2,8359E00
975,64	-2,4624E00
975,94	-4,7019E00
976,23	-1,4022E00
976,52	-3,1864E00
976,81	-3,1963E00
977,10	-4,5163E00
977,40	-2,8416E00
977,69	-3,1321E00
977,98	-4,4304E00
978,27	-4,2647E00
978,56	-4,8801E00
978,86	-2,2671E00
979,15	-3,6284E00
979,44	-3,7749E00
979,73	-3,3916E00
980,02	-4,0784E00
980,31	-3,9112E00
980,60	-3,2524E00
980,89	-4,2813E00
981,19	-6,6212E00
981,48	-3,8764E00
981,77	-2,5473E00
982,06	-6,8058E00
982,35	-3,6261E00
982,64	-4,1985E00
982,93	-3,9112E00
983,22	-3,7827E00
983,51	-3,3109E00
983,80	-3,8386E00
984,09	-3,5675E00
984,38	-2,7987E00
984,67	-3,8775E00
984,96	-2,8453E00
985,25	-4,3812E00
985,55	-3,1547E00
985,84	-4,1915E00
986,13	-5,9683E00
986,42	-5,4160E00
986,71	-6,2707E00
987,00	-7,9237E00
987,29	-6,4017E00
987,58	-5,7953E00
987,86	-8,2439E00
988,15	-5,4804E00
988,44	-5,7131E00
988,73	-1,9555E00
989,02	-6,2381E00
989,31	-4,6851E00
989,60	-4,8203E00
989,89	-4,3658E00
990,18	-2,6830E00
990,47	-6,1278E00
990,76	-4,7941E00
991,05	-4,2451E00
991,34	-8,3725E00
991,63	-5,3202E00
991,92	-6,4645E00
992,20	-4,8549E00
992,49	-5,6866E00
992,78	-5,9082E00
993,07	-5,3764E00
993,36	-4,2665E00
993,65	-5,4772E00
993,94	-3,6659E00
994,22	-6,0767E00
994,51	-5,5276E00
994,80	-6,4082E00
995,09	-8,6723E00
995,38	-4,7966E00
995,67	-7,8729E00
995,95	-4,5213E00
996,24	-7,1982E00
996,53	-4,0132E00
996,82	-6,5831E00
997,11	-7,8450E00
997,39	-4,8709E00
997,68	-7,4442E00
997,97	-7,9493E00
998,26	-1,0896E00
998,54	-3,9232E00
998,83	-3,2397E00
999,12	-8,0518E00
999,41	-6,4247E00
999,69	-3,3641E00
999,98	-5,7069E00
1000,27	-9,9036E00
1000,56	-6,9855E00
1000,84	-6,4662E00
1001,13	-8,8014E00
1001,42	-6,3704E00
1001,70	-8,9819E00
1001,99	-7,6063E00
1002,28	-6,8400E00
1002,56	-9,3725E00
1002,85	-9,7471E00
1003,14	-9,5137E00
1003,42	-5,7364E00
1003,71	-8,8899E00
1004,00	-7,2629E00
1004,28	-6,9837E00
1004,57	-5,1165E00
1004,86	-8,0053E00
1005,14	-1,1624E01
1005,43	-6,4752E00
1005,72	-8,5157E00
1006,00	-9,9590E00
1006,29	-1,1715E01
1006,57	-1,0584E01
1006,86	-9,0757E00
1007,15	-9,3680E00
1007,43	-7,6333E00
1007,72	-1,0376E01
1008,00	-1,0263E01
1008,29	-1,5896E01
1008,57	-1,1249E01
1008,86	-1,2045E01
1009,14	-1,3500E01
1009,43	-1,1370E01
1009,71	-1,2004E01
1010,00	-1,1624E01
1010,29	-1,0122E01
1010,57	-8,7622E00
1010,86	-1,6723E01
1011,14	-1,2205E01
1011,43	-1,3545E01
1011,71	-5,9992E00
1011,99	-1,2344E01
1012,28	-1,4555E01
1012,56	-8,8430E00
1012,85	-1,4169E01
1013,13	-1,5198E01
1013,42	-1,2499E01
1013,70	-1,1565E01
1013,99	-1,8087E01
1014,27	-1,1918E01
1014,56	-9,5824E00
1014,84	-1,5152E01
1015,12	-1,4885E01
1015,41	-1,4961E01
1015,69	-1,9608E01
1015,98	-1,6143E01
1016,26	-2,1287E01
1016,54	-1,2235E01
1016,83	-9,4284E00
1017,11	-8,8226E00
1017,39	-1,2922E01
1017,68	-1,0660E01
1017,96	-2,4457E00
1018,25	-1,3146E01
1018,53	-1,8803E01
1018,81	-1,3208E01
1019,10	-1,2840E01
1019,38	-1,5979E01
1019,66	-3,1903E00
1019,94	-4,8826E00
1020,23	-1,7068E01
1020,51	-2,0480E01
1020,79	-1,3357E01
1021,08	-1,7902E01
1021,36	-1,5314E01
1021,64	-1,9361E01
1021,93	-1,3320E01
1022,21	-1,9404E01
1022,49	-1,9404E01
>>>>>End Processed Spectral Data<<<<<
