SpectraSuite Data File
++++++++++++++++++++++++++++++++++++
Date: Wed Mar 01 11:51:34 EET 2017
User: mkilpela
Dark Spectrum Present: Yes
Reference Spectrum Present: No
Number of Sampled Component Spectra: 1
Spectrometers: JAZA2845
Integration Time (usec): 89280 (JAZA2845)
Spectra Averaged: 1 (JAZA2845)
Boxcar Smoothing: 0 (JAZA2845)
Correct for Electrical Dark: No (JAZA2845)
Strobe/Lamp Enabled: No (JAZA2845)
Correct for Detector Non-linearity: No (JAZA2845)
Correct for Stray Light: No (JAZA2845)
Number of Pixels in Processed Spectrum: 2048
>>>>>Begin Processed Spectral Data<<<<<
340,21	0,0000E00
340,58	0,0000E00
340,96	0,0000E00
341,33	0,0000E00
341,70	-0,0000E00
342,07	0,0000E00
342,45	-0,0000E00
342,82	0,0000E00
343,19	0,0000E00
343,57	-0,0000E00
343,94	-0,0000E00
344,31	-0,0000E00
344,68	0,0000E00
345,06	-0,0000E00
345,43	-0,0000E00
345,80	-0,0000E00
346,18	-0,0000E00
346,55	0,0000E00
346,92	-0,0000E00
347,29	0,0000E00
347,67	-0,0000E00
348,04	-0,0000E00
348,41	0,0000E00
348,78	-0,0000E00
349,16	-0,0000E00
349,53	-0,0000E00
349,90	0,0000E00
350,27	-5,3875E-02
350,64	1,1506E-02
351,02	1,7930E-02
351,39	6,0160E-03
351,76	3,2177E-03
352,13	-3,0270E-03
352,51	1,1114E-02
352,88	4,0163E-02
353,25	-1,6650E-02
353,62	2,1827E-02
353,99	-2,7129E-02
354,37	-1,6506E-02
354,74	2,2313E-03
355,11	-5,9154E-03
355,48	-1,6701E-02
355,85	1,3052E-02
356,23	2,5462E-02
356,60	-3,7450E-03
356,97	-6,1589E-03
357,34	-2,6954E-03
357,71	1,5793E-02
358,08	1,2302E-02
358,46	-1,3831E-02
358,83	3,0739E-03
359,20	2,8276E-02
359,57	1,8093E-02
359,94	-3,7790E-04
360,31	1,8536E-02
360,69	-7,1466E-03
361,06	-1,3305E-03
361,43	3,2896E-03
361,80	-2,2653E-02
362,17	2,3452E-02
362,54	-1,1499E-02
362,91	-7,8344E-03
363,29	-9,6066E-03
363,66	7,1856E-04
364,03	-4,1841E-03
364,40	1,6059E-03
364,77	-7,3655E-03
365,14	7,3631E-03
365,51	2,2033E-03
365,88	9,9720E-03
366,26	9,3822E-03
366,63	8,6797E-03
367,00	1,1416E-02
367,37	-1,2047E-03
367,74	-2,1088E-02
368,11	-1,0993E-03
368,48	1,6742E-02
368,85	7,2985E-03
369,22	-2,5058E-03
369,59	-2,1608E-02
369,97	1,1514E-02
370,34	-5,5940E-03
370,71	4,3094E-03
371,08	1,8625E-03
371,45	-3,9534E-03
371,82	-1,9841E-02
372,19	-1,3414E-03
372,56	5,6670E-03
372,93	3,7468E-03
373,30	-4,6402E-03
373,67	-2,3893E-03
374,04	-4,7345E-03
374,41	2,9242E-03
374,78	1,5395E-03
375,15	-1,5055E-03
375,52	5,2831E-03
375,89	-1,9621E-03
376,26	-5,4032E-03
376,63	1,8656E-03
377,00	2,5237E-03
377,38	2,4715E-02
377,75	-2,7636E-02
378,12	-8,4472E-03
378,49	3,5272E-03
378,86	2,1735E-02
379,23	-6,2562E-03
379,60	7,4310E-03
379,97	-1,0378E-03
380,34	7,1148E-04
380,71	4,1354E-04
381,08	-8,6194E-04
381,45	1,5948E-03
381,82	-7,4307E-03
382,19	1,1630E-02
382,55	-8,0143E-03
382,92	3,9354E-03
383,29	-1,4043E-03
383,66	4,2781E-03
384,03	8,9103E-03
384,40	1,5495E-02
384,77	-1,5023E-02
385,14	8,3742E-03
385,51	6,0177E-03
385,88	1,4314E-02
386,25	6,6195E-03
386,62	1,2197E-02
386,99	3,2814E-03
387,36	-5,0234E-03
387,73	-5,5271E-04
388,10	3,5417E-03
388,47	-8,0215E-03
388,84	-4,5341E-03
389,21	-8,1788E-03
389,58	-1,0083E-03
389,94	3,9350E-03
390,31	-7,8651E-03
390,68	4,3742E-03
391,05	7,4023E-04
391,42	6,9001E-03
391,79	3,6427E-03
392,16	-3,4969E-03
392,53	2,7765E-03
392,90	2,6155E-03
393,27	1,8464E-03
393,63	2,9580E-03
394,00	8,1601E-03
394,37	3,9302E-03
394,74	4,3070E-03
395,11	-5,5842E-03
395,48	-4,1180E-03
395,85	7,5031E-03
396,22	-2,1548E-03
396,58	-1,1906E-03
396,95	-1,3208E-03
397,32	-6,0414E-03
397,69	1,6235E-03
398,06	1,5312E-03
398,43	-8,7256E-04
398,80	6,1545E-03
399,16	-4,2502E-03
399,53	6,7540E-03
399,90	4,5504E-04
400,27	2,9100E-03
400,64	-2,2621E-03
401,01	-2,2249E-03
401,37	8,4509E-03
401,74	-1,2648E-03
402,11	-7,1847E-03
402,48	8,4418E-03
402,85	2,6131E-04
403,22	4,1593E-03
403,58	8,6952E-03
403,95	1,6452E-02
404,32	6,4743E-03
404,69	-2,0203E-03
405,06	-2,6352E-03
405,42	2,5747E-03
405,79	6,9433E-04
406,16	2,2407E-04
406,53	-4,8613E-03
406,89	-1,6751E-03
407,26	-4,0348E-03
407,63	3,9079E-03
408,00	-4,6986E-03
408,37	-4,2079E-03
408,73	1,1667E-02
409,10	5,7676E-03
409,47	1,0598E-03
409,84	4,4028E-03
410,20	1,6694E-03
410,57	-1,8265E-03
410,94	-1,8349E-03
411,31	3,8444E-03
411,67	-2,2304E-04
412,04	6,3678E-04
412,41	1,2687E-02
412,77	3,8708E-03
413,14	1,0075E-03
413,51	3,0920E-03
413,88	2,2698E-04
414,24	-9,4336E-04
414,61	5,7587E-03
414,98	3,5554E-03
415,34	-1,3384E-03
415,71	7,1340E-03
416,08	4,4960E-03
416,45	6,4017E-03
416,81	8,3371E-03
417,18	1,4762E-03
417,55	1,0029E-03
417,91	8,0649E-03
418,28	2,5368E-03
418,65	-2,2106E-04
419,01	4,1541E-03
419,38	8,7514E-03
419,75	1,4169E-02
420,11	1,2642E-02
420,48	1,8928E-02
420,85	1,1242E-02
421,21	1,6426E-02
421,58	2,1603E-02
421,95	1,9774E-02
422,31	2,5409E-02
422,68	2,2596E-02
423,05	2,2238E-02
423,41	3,3019E-02
423,78	4,0706E-02
424,15	2,8536E-02
424,51	4,2148E-02
424,88	3,8016E-02
425,24	4,2723E-02
425,61	4,3656E-02
425,98	4,8814E-02
426,34	5,0638E-02
426,71	5,3786E-02
427,07	6,4851E-02
427,44	5,8406E-02
427,81	6,7368E-02
428,17	7,5896E-02
428,54	8,0070E-02
428,90	8,1624E-02
429,27	9,5941E-02
429,64	9,7339E-02
430,00	1,0248E-01
430,37	1,1244E-01
430,73	1,2771E-01
431,10	1,3063E-01
431,46	1,3373E-01
431,83	1,4848E-01
432,20	1,5129E-01
432,56	1,7563E-01
432,93	1,8681E-01
433,29	2,0680E-01
433,66	2,2380E-01
434,02	2,3481E-01
434,39	2,6081E-01
434,75	2,6935E-01
435,12	3,1658E-01
435,49	3,1943E-01
435,85	3,4122E-01
436,22	3,7254E-01
436,58	3,9143E-01
436,95	4,2401E-01
437,31	4,5304E-01
437,68	4,5773E-01
438,04	5,3431E-01
438,41	5,4468E-01
438,77	5,9496E-01
439,14	6,0408E-01
439,50	6,8188E-01
439,87	6,7945E-01
440,23	7,3149E-01
440,60	7,4709E-01
440,96	7,5943E-01
441,33	8,0890E-01
441,69	8,3856E-01
442,06	9,0594E-01
442,42	9,6811E-01
442,78	9,6343E-01
443,15	1,0315E00
443,51	1,0449E00
443,88	1,0453E00
444,24	1,1035E00
444,61	1,1211E00
444,97	1,1599E00
445,34	1,1641E00
445,70	1,2397E00
446,07	1,1939E00
446,43	1,2008E00
446,79	1,3091E00
447,16	1,2621E00
447,52	1,2574E00
447,89	1,3285E00
448,25	1,2873E00
448,62	1,2981E00
448,98	1,3009E00
449,34	1,3472E00
449,71	1,2885E00
450,07	1,2828E00
450,44	1,2823E00
450,80	1,2946E00
451,16	1,2394E00
451,53	1,2427E00
451,89	1,2194E00
452,25	1,2329E00
452,62	1,1681E00
452,98	1,1719E00
453,35	1,1433E00
453,71	1,1206E00
454,07	1,0929E00
454,44	1,0804E00
454,80	1,0703E00
455,16	9,8932E-01
455,53	1,0111E00
455,89	9,4698E-01
456,25	9,1490E-01
456,62	9,2743E-01
456,98	8,6593E-01
457,34	8,5483E-01
457,71	8,2950E-01
458,07	8,1191E-01
458,43	7,6779E-01
458,80	7,1890E-01
459,16	6,9587E-01
459,52	6,8871E-01
459,89	6,6478E-01
460,25	6,3494E-01
460,61	5,9967E-01
460,98	5,9130E-01
461,34	5,9196E-01
461,70	5,7529E-01
462,07	5,5660E-01
462,43	5,4374E-01
462,79	5,2340E-01
463,15	5,0174E-01
463,52	4,9505E-01
463,88	4,8049E-01
464,24	4,6192E-01
464,61	4,6117E-01
464,97	4,5484E-01
465,33	4,4938E-01
465,69	4,2995E-01
466,06	4,2544E-01
466,42	4,0127E-01
466,78	4,0873E-01
467,14	3,7385E-01
467,51	3,6630E-01
467,87	3,4513E-01
468,23	3,2952E-01
468,59	3,2774E-01
468,95	3,0728E-01
469,32	2,8806E-01
469,68	2,8525E-01
470,04	2,7609E-01
470,40	2,5601E-01
470,77	2,4828E-01
471,13	2,2878E-01
471,49	2,2490E-01
471,85	2,0971E-01
472,21	2,0318E-01
472,58	1,9370E-01
472,94	1,8454E-01
473,30	1,7770E-01
473,66	1,6802E-01
474,02	1,5342E-01
474,39	1,4459E-01
474,75	1,3558E-01
475,11	1,2591E-01
475,47	1,2576E-01
475,83	1,1317E-01
476,19	1,1183E-01
476,56	1,0484E-01
476,92	9,3382E-02
477,28	8,7952E-02
477,64	8,4592E-02
478,00	7,7470E-02
478,36	7,4281E-02
478,72	6,7814E-02
479,09	6,1672E-02
479,45	5,8557E-02
479,81	5,4254E-02
480,17	5,3084E-02
480,53	4,9122E-02
480,89	4,6877E-02
481,25	3,9426E-02
481,61	4,0296E-02
481,97	3,9004E-02
482,34	3,6121E-02
482,70	2,9771E-02
483,06	3,2505E-02
483,42	3,0841E-02
483,78	3,1203E-02
484,14	3,1813E-02
484,50	2,9391E-02
484,86	2,5631E-02
485,22	2,1238E-02
485,58	2,2082E-02
485,94	2,0577E-02
486,31	1,7938E-02
486,67	1,6481E-02
487,03	1,4605E-02
487,39	1,2892E-02
487,75	1,4111E-02
488,11	1,2683E-02
488,47	1,1677E-02
488,83	1,0131E-02
489,19	9,8030E-03
489,55	9,5541E-03
489,91	8,0602E-03
490,27	7,1615E-03
490,63	4,3613E-03
490,99	4,7030E-03
491,35	6,0019E-03
491,71	5,1554E-03
492,07	7,0757E-03
492,43	6,1843E-03
492,79	3,0112E-03
493,15	4,4655E-03
493,51	2,5884E-03
493,87	4,4157E-03
494,23	2,0256E-03
494,59	1,5966E-03
494,95	1,7536E-03
495,31	3,1602E-03
495,67	8,7393E-04
496,03	1,2199E-03
496,39	1,1751E-03
496,75	-1,2927E-03
497,11	3,0271E-04
497,47	1,0132E-03
497,83	6,0632E-05
498,19	2,4247E-03
498,55	-1,4554E-03
498,91	2,9109E-03
499,27	1,6557E-03
499,63	1,7764E-03
499,98	2,3599E-04
500,34	5,9310E-05
500,70	1,2871E-03
501,06	2,3889E-03
501,42	1,0470E-03
501,78	-5,7642E-05
502,14	2,0556E-03
502,50	-2,2942E-03
502,86	7,9143E-04
503,22	1,1513E-04
503,58	-1,1260E-04
503,94	-1,1481E-03
504,29	-5,6638E-05
504,65	-9,0320E-04
505,01	7,8472E-04
505,37	-5,6489E-04
505,73	-1,5350E-03
506,09	-6,8516E-04
506,45	-4,5044E-04
506,81	1,0070E-03
507,16	-5,5121E-04
507,52	-1,0032E-03
507,88	8,9551E-04
508,24	-4,4709E-04
508,60	0,0000E00
508,96	2,4836E-03
509,32	1,9905E-03
509,67	-4,9852E-04
510,03	-8,3789E-04
510,39	-5,5422E-05
510,75	2,9246E-03
511,11	8,8460E-04
511,47	1,3662E-03
511,82	1,6728E-03
512,18	1,5457E-03
512,54	1,1023E-04
512,90	9,9258E-04
513,26	3,3541E-04
513,61	2,7483E-04
513,97	4,3526E-04
514,33	3,8387E-04
514,69	-1,3395E-03
515,05	1,6056E-03
515,40	-2,2002E-04
515,76	3,2763E-04
516,12	7,1931E-04
516,48	9,9404E-04
516,83	-4,4656E-04
517,19	-4,9215E-04
517,55	1,6472E-03
517,91	1,0714E-03
518,26	-5,5490E-04
518,62	1,4216E-03
518,98	2,7318E-04
519,34	1,6082E-03
519,69	6,6068E-04
520,05	-8,2534E-04
520,41	1,4210E-03
520,77	6,5768E-04
521,12	1,7171E-03
521,48	-2,2167E-04
521,84	8,3615E-04
522,19	5,5054E-05
522,55	-3,1624E-03
522,91	-1,8109E-03
523,27	1,1432E-03
523,62	-1,6702E-04
523,98	-1,1057E-04
524,34	-1,3627E-03
524,69	-1,2349E-03
525,05	-1,6751E-03
525,41	4,9285E-04
525,76	8,3016E-04
526,12	4,9922E-04
526,48	9,4332E-04
526,83	1,9375E-03
527,19	0,0000E00
527,55	3,3062E-04
527,90	1,3043E-03
528,26	-7,0995E-04
528,62	-2,1826E-04
528,97	-1,5271E-03
529,33	6,0582E-04
529,69	6,5637E-04
530,04	-3,7963E-04
530,40	1,2159E-03
530,76	9,7463E-04
531,11	-1,2428E-03
531,47	-8,7450E-04
531,82	5,9951E-04
532,18	-1,3065E-03
532,54	-8,6535E-04
532,89	1,9426E-03
533,25	1,0904E-03
533,60	-1,6661E-03
533,96	2,7084E-04
534,32	6,4734E-04
534,67	-2,6449E-03
535,03	4,3288E-04
535,38	-1,6374E-03
535,74	8,0331E-04
536,10	1,0259E-03
536,45	1,0169E-03
536,81	2,1422E-04
537,16	-2,1454E-04
537,52	-1,2294E-03
537,87	8,1166E-04
538,23	9,5948E-04
538,58	1,4777E-03
538,94	1,3312E-03
539,30	6,3440E-04
539,65	5,2133E-05
540,01	8,5792E-04
540,36	-5,2618E-05
540,72	-1,8961E-03
541,07	1,8692E-03
541,43	9,8158E-04
541,78	5,2780E-04
542,14	-2,0836E-04
542,49	-8,9336E-04
542,85	-6,2848E-04
543,20	5,2056E-05
543,56	-1,2768E-03
543,91	-2,6042E-04
544,27	5,2201E-04
544,62	-2,0726E-04
544,98	9,3979E-04
545,33	6,1961E-04
545,69	1,2750E-03
546,04	-2,5588E-04
546,40	-5,1883E-05
546,75	1,5404E-04
547,10	-5,6863E-04
547,46	8,3063E-04
547,81	-1,5059E-03
548,17	-1,2807E-03
548,52	-2,5653E-04
548,88	-1,5405E-04
549,23	8,2205E-04
549,59	-1,0822E-03
549,94	-3,5672E-04
550,29	-1,0767E-03
550,65	5,6398E-04
551,00	-1,0806E-03
551,36	-1,9999E-03
551,71	-5,0944E-04
552,06	1,3732E-03
552,42	5,1583E-05
552,77	-1,3378E-03
553,13	-4,5668E-04
553,48	-5,1442E-05
553,83	5,2105E-04
554,19	4,0875E-04
554,54	7,7100E-04
554,90	-3,0897E-04
555,25	-6,6529E-04
555,60	1,4997E-03
555,96	1,0806E-03
556,31	-6,1781E-04
556,66	-2,5819E-04
557,02	-1,8169E-03
557,37	1,0849E-03
557,72	9,3412E-04
558,08	-9,3082E-04
558,43	-7,2212E-04
558,79	1,6701E-03
559,14	8,7734E-04
559,49	4,6644E-04
559,85	-7,8320E-04
560,20	9,8994E-04
560,55	0,0000E00
560,90	7,8631E-04
561,26	1,0576E-04
561,61	-2,6306E-04
561,96	3,7166E-04
562,32	1,0574E-03
562,67	0,0000E00
563,02	1,8986E-03
563,38	-2,1054E-04
563,73	-1,0693E-04
564,08	-1,9729E-03
564,43	-6,4549E-04
564,79	3,3419E-03
565,14	8,6306E-04
565,49	4,2812E-04
565,84	8,0138E-04
566,20	-1,8419E-03
566,55	9,7723E-04
566,90	-1,6767E-03
567,25	-1,6305E-04
567,61	5,4494E-04
567,96	1,5301E-03
568,31	-1,9788E-03
568,66	5,4640E-05
569,02	1,2756E-03
569,37	2,2018E-04
569,72	1,2142E-03
570,07	-8,2600E-04
570,42	1,1034E-04
570,78	8,8348E-04
571,13	-2,7867E-04
571,48	0,0000E00
571,83	1,0624E-03
572,18	-2,2391E-03
572,54	6,1154E-04
572,89	-1,1302E-04
573,24	3,3903E-04
573,59	-8,3400E-04
573,94	-1,1188E-04
574,30	-5,6102E-05
574,65	-5,6181E-04
575,00	-1,6804E-03
575,35	-1,7672E-03
575,70	-1,4128E-03
576,05	-9,0340E-04
576,40	1,2397E-03
576,76	-1,1244E-04
577,11	9,6832E-04
577,46	2,0366E-03
577,81	1,3600E-03
578,16	-1,5882E-03
578,51	-1,1944E-03
578,86	6,2151E-04
579,21	9,6332E-04
579,57	3,4685E-04
579,92	-2,2725E-04
580,27	2,8757E-04
580,62	-7,5300E-04
580,97	-9,7161E-04
581,32	-5,7077E-04
581,67	1,7270E-04
582,02	-6,8776E-04
582,37	-7,4569E-04
582,72	5,7137E-05
583,08	5,7943E-04
583,43	6,3705E-04
583,78	-6,4079E-04
584,13	8,6486E-04
584,48	-5,7756E-05
584,83	-1,3430E-03
585,18	-4,6077E-04
585,53	-2,3070E-04
585,88	-6,3662E-04
586,23	-2,3420E-04
586,58	4,6475E-04
586,93	2,3047E-03
587,28	-5,8451E-05
587,63	1,2748E-03
587,98	-1,6302E-03
588,33	6,4184E-04
588,68	4,6829E-04
589,03	2,0937E-03
589,38	1,5157E-03
589,73	1,8763E-03
590,08	4,0875E-04
590,43	1,8624E-03
590,78	1,8644E-03
591,13	6,9973E-04
591,48	0,0000E00
591,83	-4,6346E-04
592,18	7,6182E-04
592,53	1,1148E-03
592,88	1,0537E-03
593,23	1,3563E-03
593,58	-5,8610E-05
593,93	-2,9626E-04
594,28	-1,1687E-03
594,63	-2,2419E-03
594,98	1,7535E-03
595,33	1,5333E-03
595,68	-2,9547E-04
596,02	1,7750E-03
596,37	7,6837E-04
596,72	1,8354E-03
597,07	1,3123E-03
597,42	0,0000E00
597,77	-1,9083E-03
598,12	6,5499E-04
598,47	-2,4691E-03
598,82	-8,3984E-04
599,17	1,1988E-04
599,52	1,8124E-04
599,86	-6,0497E-04
600,21	1,1436E-03
600,56	6,0961E-05
600,91	1,8156E-04
601,26	-1,0321E-03
601,61	3,6553E-04
601,96	4,8727E-04
602,30	-5,4612E-04
602,65	1,4046E-03
603,00	-2,0270E-03
603,35	-1,2278E-04
603,70	1,1060E-03
604,05	5,5727E-04
604,40	-8,6967E-04
604,74	0,0000E00
605,09	-6,1811E-04
605,44	-1,1862E-03
605,79	3,0959E-04
606,14	4,3893E-04
606,48	1,5557E-03
606,83	-1,5010E-03
607,18	2,5231E-04
607,53	-6,3345E-05
607,88	1,8864E-04
608,22	4,4356E-04
608,57	1,0803E-03
608,92	-2,0933E-03
609,27	-6,3873E-04
609,62	3,8563E-04
609,96	1,2193E-03
610,31	3,2144E-04
610,66	1,2279E-03
611,01	2,3853E-03
611,35	-9,1053E-04
611,70	1,8991E-03
612,05	2,2781E-03
612,40	1,6430E-03
612,74	-1,5066E-03
613,09	-5,2549E-04
613,44	4,6249E-04
613,79	8,6040E-04
614,13	-1,4142E-03
614,48	-6,6176E-05
614,83	-1,9931E-04
615,17	3,9790E-04
615,52	-2,2086E-03
615,87	4,7312E-04
616,22	1,9576E-03
616,56	1,0842E-03
616,91	-1,0187E-03
617,26	-1,1561E-03
617,60	6,8181E-04
617,95	6,1616E-04
618,30	-2,0733E-04
618,64	-5,4392E-04
618,99	3,2991E-03
619,34	-2,0690E-04
619,68	-1,6620E-03
620,03	-1,5240E-03
620,38	-2,7769E-04
620,72	1,1696E-03
621,07	1,3934E-03
621,42	-4,1708E-04
621,76	-1,3295E-03
622,11	-6,2900E-04
622,45	5,6425E-04
622,80	-7,7518E-04
623,15	2,1988E-03
623,49	2,8377E-04
623,84	-1,5732E-03
624,18	-1,5710E-03
624,53	-1,3599E-03
624,88	-8,5477E-04
625,22	1,5801E-03
625,57	-2,8485E-04
625,91	5,0298E-04
626,26	4,3588E-04
626,61	1,4381E-04
626,95	-2,1679E-04
627,30	-5,8169E-04
627,64	7,2791E-05
627,99	-5,1059E-04
628,33	-9,4657E-04
628,68	1,6720E-03
629,03	-8,0596E-04
629,37	-1,9112E-03
629,72	8,1422E-04
630,06	-8,0828E-04
630,41	-1,1106E-03
630,75	1,7129E-03
631,10	1,1119E-03
631,44	-9,6974E-04
631,79	2,0863E-03
632,13	0,0000E00
632,48	2,2281E-03
632,82	-7,5136E-05
633,17	6,8333E-04
633,51	1,2019E-03
633,86	1,5779E-03
634,20	1,7321E-03
634,55	1,9595E-03
634,89	9,2222E-04
635,24	3,0567E-04
635,58	-2,9006E-03
635,93	-6,0965E-04
636,27	-3,8363E-04
636,62	1,9731E-03
636,96	1,6688E-03
637,30	-1,2320E-03
637,65	7,7280E-05
637,99	1,4673E-03
638,34	2,4550E-03
638,68	1,2374E-03
639,03	-3,3043E-03
639,37	0,0000E00
639,71	2,2378E-03
640,06	0,0000E00
640,40	7,0147E-04
640,75	-8,5502E-04
641,09	1,6436E-03
641,44	3,9087E-04
641,78	-9,3394E-04
642,12	7,8793E-04
642,47	1,5676E-04
642,81	-6,2969E-04
643,15	1,1013E-03
643,50	1,6567E-03
643,84	1,1108E-03
644,19	1,5146E-03
644,53	1,2810E-03
644,87	-1,2738E-03
645,22	-1,2006E-03
645,56	2,7062E-03
645,90	-8,0070E-04
646,25	2,7368E-03
646,59	0,0000E00
646,93	-8,0662E-04
647,28	1,8558E-03
647,62	-2,9903E-03
647,96	8,9471E-04
648,31	-4,0485E-04
648,65	-2,2915E-03
648,99	4,0975E-04
649,34	1,0803E-03
649,68	9,0094E-04
650,02	-1,4705E-03
650,36	-8,2106E-05
650,71	-8,2369E-05
651,05	-3,5925E-03
651,39	-1,6536E-04
651,74	-2,5939E-03
652,08	-7,5370E-04
652,42	-8,3469E-05
652,76	1,5980E-03
653,11	1,1749E-03
653,45	-2,0220E-03
653,79	5,9002E-04
654,13	5,8887E-04
654,48	-1,9443E-03
654,82	-7,6522E-04
655,16	2,4755E-03
655,50	1,6294E-03
655,85	1,2951E-03
656,19	8,5330E-05
656,53	-9,4463E-04
656,87	1,4673E-03
657,21	-1,0373E-03
657,56	-8,7033E-05
657,90	-1,7334E-04
658,24	-9,6400E-04
658,58	-1,9166E-03
658,92	1,1284E-03
659,27	-3,4867E-04
659,61	-4,2938E-03
659,95	-2,0106E-03
660,29	-2,2066E-03
660,63	-1,6028E-03
660,97	-2,6457E-03
661,32	-8,8566E-05
661,66	-3,5654E-04
662,00	2,6643E-04
662,34	-3,3214E-03
662,68	-8,9658E-05
663,02	-1,4351E-03
663,37	2,5082E-03
663,71	-2,0784E-03
664,05	3,6347E-04
664,39	1,4610E-03
664,73	1,6451E-03
665,07	3,3013E-03
665,41	6,4174E-04
665,75	-2,7558E-04
666,09	7,3641E-04
666,44	2,3203E-03
666,78	1,7660E-03
667,12	-1,5750E-03
667,46	-4,6839E-04
667,80	-2,7994E-04
668,14	-2,6433E-03
668,48	3,5558E-03
668,82	-1,8971E-04
669,16	-1,4327E-03
669,50	4,7056E-04
669,84	-4,7736E-04
670,18	-9,5807E-05
670,52	3,6340E-03
670,86	-1,5439E-03
671,20	3,8742E-04
671,54	4,8568E-04
671,88	2,0553E-03
672,22	-1,9170E-04
672,57	-1,0743E-03
672,91	-1,6677E-03
673,25	-1,8619E-03
673,59	-1,4867E-03
673,93	-4,7488E-03
674,27	-1,6828E-03
674,61	4,0001E-04
674,95	-2,9763E-04
675,28	-5,7195E-03
675,62	-2,0033E-03
675,96	9,9002E-04
676,30	6,0586E-04
676,64	-3,5146E-03
676,98	-1,2162E-03
677,32	9,2749E-04
677,66	-5,1918E-04
678,00	-5,1261E-04
678,34	-2,3547E-03
678,68	7,2078E-04
679,02	4,1483E-04
679,36	-2,1833E-03
679,70	-2,5198E-03
680,04	1,5658E-03
680,38	5,1942E-04
680,72	2,6582E-03
681,06	1,5893E-03
681,39	1,4712E-03
681,73	4,2410E-04
682,07	1,9320E-03
682,41	-2,1524E-04
682,75	3,7761E-03
683,09	2,1338E-03
683,43	3,2379E-04
683,77	-7,5642E-04
684,11	3,0383E-03
684,44	-3,4844E-03
684,78	1,0881E-04
685,12	-3,2692E-03
685,46	2,1850E-03
685,80	-1,6503E-03
686,14	-2,0815E-03
686,48	1,6586E-03
686,81	1,1065E-04
687,15	3,8974E-03
687,49	1,3419E-03
687,83	3,1100E-03
688,17	1,4721E-03
688,51	1,1298E-03
688,84	-1,1386E-04
689,18	3,1556E-03
689,52	5,6999E-03
689,86	7,9627E-04
690,20	-2,3079E-04
690,53	1,0426E-03
690,87	-1,1399E-04
691,21	2,4262E-03
691,55	-1,2777E-03
691,88	2,3148E-03
692,22	1,2867E-03
692,56	-1,0503E-03
692,90	0,0000E00
693,23	1,4074E-03
693,57	1,1738E-03
693,91	-1,2922E-03
694,25	-1,1812E-03
694,58	1,6641E-03
694,92	5,3956E-03
695,26	9,4914E-04
695,60	1,1963E-04
695,93	1,1904E-04
696,27	-2,1373E-03
696,61	1,0859E-03
696,94	2,6466E-03
697,28	-1,5620E-03
697,62	4,3203E-03
697,96	-1,8330E-03
698,29	-1,2038E-04
698,63	1,3460E-03
698,97	-1,8445E-03
699,30	-2,3169E-03
699,64	-5,3187E-03
699,98	-4,8904E-04
700,31	-6,1731E-04
700,65	-3,4416E-03
700,99	-2,2319E-03
701,32	-6,1862E-04
701,66	-1,4898E-03
702,00	-2,4847E-04
702,33	-1,2464E-03
702,67	-2,7369E-03
703,00	1,1421E-03
703,34	1,1237E-03
703,68	-3,7840E-03
704,01	2,4150E-03
704,35	-1,5260E-03
704,69	0,0000E00
705,02	-1,9125E-03
705,36	-2,9243E-03
705,69	-5,9862E-03
706,03	-1,1506E-03
706,36	7,7034E-04
706,70	-7,0556E-03
707,04	2,9275E-03
707,37	-3,8384E-04
707,71	-1,5443E-03
708,04	-2,8538E-03
708,38	1,2919E-04
708,71	-2,9342E-03
709,05	-1,9492E-03
709,39	3,9090E-04
709,72	-2,6083E-03
710,06	-2,1026E-03
710,39	1,4532E-03
710,73	-3,5661E-03
711,06	0,0000E00
711,40	1,0532E-03
711,73	-4,5044E-03
712,07	3,9596E-04
712,40	4,7826E-03
712,74	-5,1987E-03
713,07	-4,5420E-03
713,41	-1,6043E-03
713,74	4,9298E-03
714,08	4,7024E-03
714,41	5,9300E-03
714,75	-4,0308E-04
715,08	8,0087E-04
715,42	2,0239E-03
715,75	-4,3603E-03
716,08	-8,1603E-04
716,42	1,3525E-04
716,75	1,2313E-03
717,09	-3,4188E-03
717,42	-4,1272E-03
717,76	1,3700E-04
718,09	-1,3778E-04
718,43	-8,2691E-04
718,76	4,5886E-03
719,09	0,0000E00
719,43	2,7618E-04
719,76	-4,5762E-03
720,10	-8,3790E-04
720,43	-8,3334E-04
720,76	-3,4984E-03
721,10	4,7332E-03
721,43	4,7683E-03
721,76	-1,7091E-03
722,10	4,2460E-03
722,43	3,8212E-03
722,77	3,5317E-03
723,10	-4,1306E-03
723,43	-1,4234E-03
723,77	5,7143E-04
724,10	1,5657E-03
724,43	2,8770E-04
724,77	-3,0288E-03
725,10	-3,6035E-03
725,43	1,4438E-04
725,77	-4,3452E-04
726,10	7,3356E-04
726,43	2,9033E-03
726,77	1,7753E-03
727,10	3,2417E-03
727,43	-3,2112E-03
727,77	2,9453E-04
728,10	1,7735E-03
728,43	-3,8522E-03
728,76	-1,4901E-04
729,10	2,9721E-03
729,43	-4,0160E-03
729,76	-4,5267E-04
730,09	-3,1721E-03
730,43	-4,6614E-03
730,76	0,0000E00
731,09	3,4523E-03
731,42	7,6151E-04
731,76	-1,6654E-03
732,09	9,1442E-04
732,42	-3,0384E-04
732,75	-5,8105E-03
733,09	1,5480E-03
733,42	-2,4908E-03
733,75	-1,5449E-04
734,08	-5,4743E-03
734,41	4,9908E-03
734,75	1,7066E-03
735,08	-3,1443E-03
735,41	0,0000E00
735,74	-2,0643E-03
736,07	-4,7743E-04
736,41	2,8646E-03
736,74	-1,2821E-03
737,07	2,3929E-03
737,40	3,8429E-03
737,73	-2,4098E-03
738,06	-4,8321E-04
738,40	-1,7662E-03
738,73	1,9329E-03
739,06	2,1102E-03
739,39	-1,6440E-04
739,72	5,3213E-03
740,05	2,4654E-03
740,38	2,4685E-03
740,72	-2,6474E-03
741,05	1,6670E-03
741,38	-1,1621E-03
741,71	-1,8560E-03
742,04	-4,3832E-03
742,37	-5,5629E-03
742,70	2,6940E-03
743,03	-1,6890E-03
743,36	-3,2458E-03
743,69	-6,8230E-04
744,02	2,7434E-03
744,36	-1,0370E-03
744,69	6,9273E-03
745,02	-8,7036E-04
745,35	-2,7931E-03
745,68	-6,8087E-03
746,01	-3,4890E-03
746,34	5,6308E-03
746,67	1,2475E-03
747,00	-1,5894E-03
747,33	-2,8636E-03
747,66	-3,5768E-03
747,99	-4,9957E-03
748,32	-1,7957E-04
748,65	2,7227E-03
748,98	-4,8739E-03
749,31	-3,6431E-04
749,64	-5,1355E-03
749,97	-5,5462E-04
750,30	-2,5919E-03
750,63	-2,2097E-03
750,96	-2,9581E-03
751,29	-1,2977E-03
751,62	5,5746E-04
751,95	-1,8872E-03
752,28	-2,9936E-03
752,61	-4,9160E-03
752,94	-1,1371E-03
753,27	-1,1416E-03
753,60	5,7727E-03
753,92	1,1454E-03
754,25	2,3132E-03
754,58	1,3429E-03
754,91	-2,5382E-03
755,24	-3,8830E-04
755,57	-3,8961E-04
755,90	-4,7014E-03
756,23	2,7516E-03
756,56	-2,7317E-03
756,89	5,9295E-04
757,22	-1,1904E-03
757,54	-1,9979E-04
757,87	-3,4330E-03
758,20	-2,0155E-03
758,53	6,0421E-04
758,86	2,2259E-03
759,19	-5,6834E-03
759,52	-8,2565E-03
759,84	4,9194E-03
760,17	-3,6799E-03
760,50	-1,0310E-03
760,83	8,3345E-04
761,16	-2,7759E-03
761,49	8,3638E-04
761,81	-4,4300E-03
762,14	4,2758E-04
762,47	-3,1739E-03
762,80	5,2676E-03
763,13	5,2936E-03
763,45	3,8544E-03
763,78	4,5451E-03
764,11	-1,5019E-03
764,44	7,3468E-03
764,77	-4,2982E-03
765,09	-3,0615E-03
765,42	7,0018E-03
765,75	-1,7623E-03
766,08	-4,3979E-03
766,40	1,1120E-03
766,73	6,6437E-04
767,06	4,4172E-04
767,39	-6,5374E-03
767,71	-1,3490E-03
768,04	-5,6645E-03
768,37	-1,1312E-03
768,70	4,9966E-03
769,02	5,6652E-03
769,35	2,9734E-03
769,68	-1,0119E-02
770,00	4,1195E-03
770,33	6,5608E-03
770,66	-7,7076E-03
770,99	-2,3089E-04
771,31	1,8835E-03
771,64	-4,6789E-04
771,97	-8,7836E-03
772,29	-9,8580E-03
772,62	4,5547E-03
772,95	-5,2598E-03
773,27	-2,6532E-03
773,60	-1,9145E-03
773,93	-7,1397E-04
774,25	6,0357E-03
774,58	-7,2814E-04
774,90	-5,7928E-03
775,23	-7,3317E-04
775,56	-9,1018E-03
775,88	3,1856E-03
776,21	-4,9515E-04
776,54	-9,9259E-03
776,86	2,4744E-04
777,19	-1,4996E-03
777,51	7,0412E-03
777,84	1,0069E-03
778,16	-3,8249E-03
778,49	-1,2690E-02
778,82	-6,1129E-03
779,14	-1,1750E-02
779,47	-2,5615E-04
779,79	0,0000E00
780,12	1,5594E-03
780,44	-1,2894E-03
780,77	4,1680E-03
781,10	2,0955E-03
781,42	-1,3245E-03
781,75	-1,3157E-03
782,07	2,3695E-03
782,40	2,6716E-04
782,72	7,9614E-03
783,05	2,6779E-03
783,37	-2,9513E-03
783,70	-1,6138E-03
784,02	5,9883E-03
784,35	-8,4302E-03
784,67	-1,4034E-02
785,00	3,2711E-03
785,32	1,3894E-03
785,65	-3,0553E-03
785,97	3,2935E-03
786,30	-3,9470E-03
786,62	2,5087E-03
786,94	4,5422E-03
787,27	-5,6300E-04
787,59	-3,1015E-03
787,92	-6,3028E-03
788,24	3,9511E-03
788,57	8,4564E-04
788,89	5,7159E-04
789,22	3,9664E-03
789,54	5,7037E-04
789,86	-4,8079E-03
790,19	-4,8325E-03
790,51	2,2677E-03
790,84	1,4244E-03
791,16	-7,4109E-03
791,48	1,4267E-03
791,81	5,6863E-04
792,13	-4,0046E-03
792,45	8,9058E-03
792,78	-3,7104E-03
793,10	-4,8474E-03
793,43	-5,1095E-03
793,75	7,1260E-03
794,07	-2,5954E-03
794,40	6,0190E-03
794,72	7,3730E-03
795,04	5,9895E-03
795,37	-5,1196E-03
795,69	-2,0101E-03
796,01	-1,4234E-03
796,34	-5,1704E-03
796,66	-6,4931E-03
796,98	-7,5659E-03
797,30	-1,1890E-02
797,63	-8,7262E-03
797,95	-5,0972E-03
798,27	-5,4118E-03
798,60	-8,5209E-04
798,92	2,2703E-03
799,24	-3,6388E-03
799,56	3,3706E-03
799,89	-6,8165E-03
800,21	2,5323E-03
800,53	-3,6954E-03
800,85	-5,6374E-04
801,18	-2,5415E-03
801,50	-3,9343E-03
801,82	7,3536E-03
802,14	4,5037E-03
802,47	-3,3831E-03
802,79	3,1160E-03
803,11	6,7784E-03
803,43	-2,8095E-03
803,75	5,9275E-03
804,08	-1,9871E-03
804,40	7,6443E-03
804,72	5,3993E-03
805,04	3,6767E-03
805,36	6,5816E-03
805,69	7,0727E-03
806,01	0,0000E00
806,33	-2,0039E-03
806,65	-6,0629E-03
806,97	3,1853E-03
807,29	-3,4754E-03
807,62	-2,2978E-03
807,94	-8,3092E-03
808,26	-1,1629E-03
808,58	1,0428E-02
808,90	-2,9101E-04
809,22	5,2981E-03
809,54	5,8256E-03
809,86	2,6328E-03
810,18	-1,7607E-03
810,51	-1,7521E-03
810,83	7,9562E-03
811,15	-1,1969E-03
811,47	-8,8636E-03
811,79	2,0709E-03
812,11	7,4063E-03
812,43	-2,6723E-03
812,75	3,3140E-03
813,07	-3,9581E-03
813,39	9,1066E-03
813,71	3,0403E-03
814,03	2,4170E-03
814,35	-5,7448E-03
814,67	3,0129E-03
814,99	1,5253E-03
815,31	6,0967E-04
815,64	8,6262E-03
815,96	0,0000E00
816,28	-5,2639E-03
816,60	4,6169E-03
816,92	2,1696E-03
817,24	-4,9893E-03
817,56	-4,3362E-03
817,88	6,9699E-03
818,19	-8,1120E-03
818,51	-1,4232E-02
818,83	-5,6213E-03
819,15	-7,9153E-03
819,47	-8,2982E-03
819,79	-1,9386E-02
820,11	5,4603E-03
820,43	-6,7194E-03
820,75	-7,0041E-03
821,07	-8,3367E-03
821,39	3,2485E-03
821,71	-2,2841E-03
822,03	-5,8839E-03
822,35	-3,6090E-03
822,67	-4,2466E-03
822,99	2,3348E-03
823,31	9,8940E-04
823,62	1,2349E-02
823,94	-1,2592E-02
824,26	1,0077E-03
824,58	2,6927E-03
824,90	-4,7373E-03
825,22	-8,4367E-03
825,54	-1,0251E-03
825,86	4,0856E-03
826,17	-2,0417E-03
826,49	-1,6805E-03
826,81	-7,5392E-03
827,13	6,9145E-03
827,45	-1,3729E-03
827,77	-5,8668E-03
828,08	6,9861E-04
828,40	-2,1005E-03
828,72	-2,0999E-03
829,04	-1,0852E-02
829,36	1,0758E-02
829,67	6,7303E-03
829,99	-1,3317E-02
830,31	-1,0407E-02
830,63	1,4532E-03
830,95	-8,3158E-03
831,26	-2,5588E-03
831,58	6,8822E-03
831,90	8,3157E-03
832,22	4,7438E-03
832,53	3,3453E-03
832,85	-2,6243E-03
833,17	-2,2334E-03
833,49	-7,4866E-04
833,80	0,0000E00
834,12	1,7001E-02
834,44	-3,7947E-04
834,76	2,6668E-03
835,07	-2,2958E-03
835,39	-8,4979E-03
835,71	1,5174E-03
836,02	1,9011E-02
836,34	8,3956E-03
836,66	7,6977E-04
836,97	-6,1464E-03
837,29	-3,4721E-03
837,61	6,2114E-03
837,93	-3,1768E-03
838,24	5,8677E-03
838,56	-3,5017E-03
838,88	1,3573E-02
839,19	-3,9890E-03
839,51	-4,0074E-03
839,82	1,6028E-03
840,14	1,2081E-02
840,46	-7,2072E-03
840,77	8,5233E-03
841,09	-4,8540E-03
841,41	-8,1363E-03
841,72	-2,4375E-03
842,04	6,1164E-03
842,35	-4,0669E-03
842,67	6,9914E-03
842,99	-8,2361E-04
843,30	-2,9771E-02
843,62	2,0853E-03
843,93	-1,1405E-02
844,25	0,0000E00
844,56	-3,3901E-03
844,88	-1,7066E-02
845,20	1,6946E-03
845,51	-1,5297E-02
845,83	4,2909E-03
846,14	5,1564E-03
846,46	1,1909E-02
846,77	-8,1044E-03
847,09	-3,0866E-03
847,40	-1,1790E-02
847,72	-8,9067E-04
848,03	4,3922E-04
848,35	1,4656E-02
848,66	-1,4323E-02
848,98	-8,9479E-03
849,29	-8,0545E-03
849,61	7,2178E-03
849,92	2,2529E-03
850,24	2,9936E-02
850,55	3,6544E-03
850,87	0,0000E00
851,18	-4,5710E-03
851,50	8,8157E-03
851,81	9,1648E-03
852,12	-2,0781E-02
852,44	-5,5475E-03
852,75	-6,1575E-03
853,07	-1,1262E-02
853,38	2,8639E-03
853,70	-4,2468E-03
854,01	-1,4715E-02
854,32	3,3704E-03
854,64	2,7268E-02
854,95	9,6810E-04
855,27	1,8479E-02
855,58	-4,8723E-03
855,89	1,4504E-03
856,21	7,8921E-03
856,52	1,4798E-02
856,83	5,4813E-03
857,15	2,3884E-02
857,46	-4,9700E-04
857,77	6,0223E-03
858,09	-5,0355E-03
858,40	-1,5143E-03
858,71	-1,0527E-02
859,03	-5,5984E-03
859,34	7,2232E-03
859,65	1,1635E-02
859,97	6,6488E-03
860,28	5,1870E-04
860,59	7,7739E-03
860,91	2,6300E-03
861,22	-1,5669E-02
861,53	1,3093E-02
861,84	-8,4467E-03
862,16	6,4153E-03
862,47	-1,2857E-02
862,78	8,0572E-03
863,10	2,1423E-03
863,41	9,2335E-03
863,72	-1,8004E-02
864,03	-4,3203E-03
864,35	-5,9821E-03
864,66	-6,0810E-03
864,97	-1,5784E-02
865,28	-2,0014E-02
865,59	-1,7362E-02
865,91	-8,4658E-03
866,22	9,4725E-03
866,53	5,5960E-04
866,84	-7,4071E-03
867,15	3,4403E-03
867,47	-1,7191E-03
867,78	3,5554E-02
868,09	8,0099E-03
868,40	2,8772E-03
868,71	0,0000E00
869,02	-1,1733E-02
869,34	-1,3016E-02
869,65	7,1138E-03
869,96	8,8399E-03
870,27	7,7949E-03
870,58	-1,2492E-02
870,89	7,8742E-03
871,20	-2,4153E-03
871,52	-3,2509E-02
871,83	-2,3736E-02
872,14	6,7464E-03
872,45	-1,3540E-02
872,76	5,6347E-03
873,07	-6,2542E-03
873,38	-6,2911E-03
873,69	-2,1769E-02
874,00	-1,0206E-02
874,31	-6,3076E-04
874,62	6,3104E-03
874,94	-6,4438E-03
875,25	-3,0668E-02
875,56	-1,7687E-02
875,87	1,2844E-03
876,18	1,0550E-02
876,49	-5,2891E-03
876,80	0,0000E00
877,11	3,2520E-03
877,42	1,9691E-03
877,73	1,3227E-02
878,04	-1,0143E-02
878,35	-1,4123E-02
878,66	-3,9847E-03
878,97	8,0680E-03
879,28	3,2400E-02
879,59	2,0438E-03
879,90	-1,7755E-02
880,21	-6,7656E-03
880,52	1,4894E-02
880,83	-6,1321E-03
881,14	-6,8078E-03
881,45	6,8231E-04
881,76	1,7581E-02
882,07	-2,1689E-02
882,37	-8,2410E-03
882,68	-6,7536E-03
882,99	8,8196E-03
883,30	4,1066E-03
883,61	-2,0103E-02
883,92	-6,0799E-03
884,23	6,1402E-03
884,54	-1,0742E-02
884,85	-6,8179E-03
885,16	-1,0902E-02
885,47	-1,3651E-02
885,77	1,2369E-02
886,08	8,9543E-03
886,39	-9,6233E-03
886,70	1,0281E-02
887,01	-4,1174E-03
887,32	-8,8397E-03
887,63	-1,3911E-02
887,93	1,2925E-02
888,24	-2,2659E-02
888,55	-9,6039E-03
888,86	3,4380E-03
889,17	-1,0410E-02
889,47	1,1673E-02
889,78	-4,1363E-03
890,09	-1,5778E-02
890,40	-2,7597E-03
890,71	2,6678E-02
891,01	-2,7977E-03
891,32	-1,6373E-02
891,63	-1,0937E-02
891,94	-8,9947E-03
892,25	6,7984E-04
892,55	8,2454E-03
892,86	-2,6846E-02
893,17	2,7688E-03
893,48	-2,8191E-02
893,78	-1,1646E-02
894,09	-1,5864E-02
894,40	2,8859E-02
894,70	-1,3991E-03
895,01	6,9185E-04
895,32	-1,0392E-02
895,63	1,7328E-02
895,93	2,0278E-02
896,24	-9,0433E-03
896,55	-9,7708E-03
896,85	-1,5432E-02
897,16	1,2654E-02
897,47	-2,8421E-02
897,77	-1,1067E-02
898,08	-4,8974E-03
898,39	-2,5293E-02
898,69	-9,8934E-03
899,00	7,8533E-03
899,31	-2,8432E-03
899,61	-5,7302E-03
899,92	4,2441E-03
900,23	-2,8338E-03
900,53	1,0736E-02
900,84	9,8695E-03
901,14	1,4339E-02
901,45	3,1716E-02
901,76	1,5563E-02
902,06	1,7422E-02
902,37	-6,5139E-03
902,67	1,2418E-02
902,98	-3,6370E-03
903,29	-2,9027E-03
903,59	1,3782E-02
903,90	-5,1883E-03
904,20	8,8861E-03
904,51	8,7437E-03
904,81	4,4438E-03
905,12	2,1923E-03
905,42	5,2647E-03
905,73	-3,7925E-03
906,03	2,9687E-03
906,34	1,6390E-02
906,64	-3,0865E-02
906,95	7,5133E-03
907,25	4,6039E-03
907,56	-5,3958E-03
907,86	-1,8503E-02
908,17	-3,1068E-03
908,47	-2,0333E-02
908,78	0,0000E00
909,08	6,2722E-03
909,39	-3,1494E-03
909,69	-1,4401E-02
910,00	-2,7992E-02
910,30	-7,3235E-03
910,61	-2,0704E-02
910,91	-2,8843E-02
911,21	-2,9951E-02
911,52	-1,0797E-02
911,82	-2,4743E-03
912,13	-1,4585E-02
912,43	1,8961E-02
912,74	-1,7573E-02
913,04	-1,4994E-02
913,34	-1,4326E-02
913,65	-8,2889E-03
913,95	6,9062E-03
914,25	3,4170E-03
914,56	4,2941E-03
914,86	6,9043E-03
915,17	-3,5001E-03
915,47	-1,4766E-02
915,77	-2,6801E-03
916,08	1,8430E-02
916,38	-1,2965E-02
916,68	-2,9142E-02
916,99	7,1972E-03
917,29	8,1260E-03
917,59	3,6283E-03
917,90	9,1416E-04
918,20	-5,4184E-03
918,50	-8,0442E-03
918,80	-1,5495E-02
919,11	-1,6490E-02
919,41	7,4321E-03
919,71	5,5170E-03
920,02	-1,4863E-02
920,32	-2,4478E-02
920,62	-9,5544E-03
920,92	6,6841E-03
921,23	-9,6096E-04
921,53	2,0168E-02
921,83	-5,7821E-03
922,13	5,9322E-03
922,44	-1,4628E-02
922,74	-2,9520E-03
923,04	-1,6893E-02
923,34	2,8712E-02
923,64	9,8694E-04
923,95	-7,0490E-03
924,25	8,0871E-03
924,55	-3,4047E-02
924,85	2,0610E-02
925,15	-4,1368E-03
925,46	2,6681E-02
925,76	-6,2355E-03
926,06	-6,2366E-02
926,36	-2,3439E-02
926,66	-4,5640E-02
926,96	-3,5065E-02
927,26	3,6733E-02
927,57	-3,2408E-03
927,87	1,5349E-02
928,17	-4,3683E-03
928,47	-4,2173E-02
928,77	2,2020E-03
929,07	-1,5683E-02
929,37	-1,7776E-02
929,67	5,6376E-03
929,98	-1,0125E-02
930,28	-1,3566E-02
930,58	-1,1458E-02
930,88	3,5150E-03
931,18	5,1470E-02
931,48	-9,3190E-03
931,78	3,4246E-02
932,08	-1,3181E-02
932,38	-1,0901E-02
932,68	-4,9292E-02
932,98	-3,2810E-02
933,28	-2,4262E-03
933,58	6,1025E-03
933,88	-1,2341E-02
934,18	-2,7571E-02
934,48	-4,9767E-03
934,78	3,0193E-02
935,08	-2,2521E-02
935,38	-4,9581E-02
935,68	-1,1362E-02
935,98	3,7967E-03
936,28	-2,2127E-02
936,58	-6,4946E-02
936,88	-2,3346E-02
937,18	3,1233E-02
937,48	6,6555E-03
937,78	-2,1217E-02
938,08	2,2898E-02
938,38	4,6876E-02
938,68	1,7834E-02
938,98	-2,7763E-03
939,28	-2,0634E-02
939,57	-6,1446E-02
939,87	5,1300E-02
940,17	1,1295E-02
940,47	-7,1362E-03
940,77	8,7170E-03
941,07	1,4256E-03
941,37	-1,4245E-02
941,67	-1,8642E-02
941,97	2,0667E-02
942,26	4,7684E-02
942,56	4,1859E-02
942,86	3,9121E-02
943,16	-4,4267E-03
943,46	1,9790E-02
943,76	-5,7145E-02
944,06	-1,0659E-02
944,35	-1,0805E-02
944,65	1,4084E-02
944,95	1,5332E-03
945,25	9,5370E-03
945,55	-2,6416E-02
945,84	-5,4477E-02
946,14	1,5991E-02
946,44	-1,1469E-02
946,74	-1,4608E-02
947,03	3,6616E-02
947,33	-4,4126E-02
947,63	-3,5954E-02
947,93	5,0625E-03
948,23	-6,8775E-03
948,52	-3,7131E-02
948,82	-1,7210E-02
949,12	-3,0895E-02
949,41	-4,8520E-02
949,71	-1,7373E-03
950,01	-4,3817E-02
950,31	-2,6660E-02
950,60	-3,6972E-02
950,90	2,8425E-02
951,20	-3,7625E-02
951,49	-1,8297E-02
951,79	2,4604E-02
952,09	-1,0952E-02
952,38	-2,1100E-02
952,68	4,3799E-02
952,98	-3,6426E-03
953,27	-1,9328E-03
953,57	-3,3671E-02
953,87	9,2564E-03
954,16	-3,8069E-02
954,46	-2,7428E-02
954,76	5,6942E-03
955,05	-4,3363E-02
955,35	-1,7491E-02
955,64	1,2134E-02
955,94	-2,4097E-02
956,24	3,4050E-02
956,53	-3,4246E-02
956,83	-3,2702E-02
957,12	-3,2470E-02
957,42	-2,9049E-02
957,72	8,3131E-03
958,01	6,2873E-03
958,31	8,5906E-03
958,60	-5,7698E-02
958,90	-7,6911E-02
959,19	7,5948E-02
959,49	-6,5122E-02
959,78	6,7468E-03
960,08	4,1848E-02
960,37	0,0000E00
960,67	-6,0161E-02
960,96	-2,2345E-03
961,26	-8,0335E-02
961,55	-4,4461E-02
961,85	-1,8216E-02
962,14	-1,8562E-02
962,44	-6,3203E-02
962,73	-7,8254E-02
963,03	-2,4048E-02
963,32	7,9217E-02
963,62	-5,2281E-02
963,91	-1,1421E-01
964,21	-1,2250E-02
964,50	-3,9749E-02
964,80	-1,0938E-01
965,09	4,7129E-02
965,38	-8,2360E-02
965,68	-4,8608E-02
965,97	1,5048E-02
966,27	-5,9338E-02
966,56	1,5636E-02
966,85	-1,8399E-02
967,15	7,6334E-02
967,44	-5,7706E-02
967,74	5,3507E-03
968,03	0,0000E00
968,32	1,0913E-02
968,62	-1,6090E-02
968,91	4,2411E-02
969,20	-9,5719E-02
969,50	5,5785E-03
969,79	6,7174E-02
970,08	2,8699E-03
970,38	4,6100E-02
970,67	-8,8992E-03
970,96	2,6214E-02
971,26	-2,3143E-02
971,55	-3,5115E-02
971,84	-3,6058E-02
972,13	-2,0727E-02
972,43	-1,1582E-01
972,72	-2,7935E-02
973,01	3,0572E-03
973,31	-3,1176E-03
973,60	-3,1405E-02
973,89	-4,8061E-02
974,18	9,7292E-03
974,48	1,5804E-02
974,77	-3,3191E-02
975,06	-3,2109E-03
975,35	2,2918E-02
975,64	1,0029E-01
975,94	-3,3673E-02
976,23	-7,1405E-02
976,52	-1,2225E-01
976,81	2,3982E-02
977,10	2,0629E-02
977,40	3,2004E-02
977,69	-1,3454E-01
977,98	-3,2801E-02
978,27	-1,8554E-01
978,56	1,0925E-02
978,86	-1,1034E-01
979,15	4,3913E-02
979,44	1,0201E-01
979,73	-5,6561E-02
980,02	-1,8946E-02
980,31	7,6768E-02
980,60	-1,1400E-01
980,89	6,4257E-02
981,19	-2,3350E-01
981,48	-5,0459E-02
981,77	3,6397E-02
982,06	-2,3943E-01
982,35	-1,7540E-01
982,64	3,7179E-02
982,93	1,5911E-02
983,22	8,1734E-03
983,51	-8,1353E-02
983,80	-8,2435E-02
984,09	-1,3926E-01
984,38	-8,0639E-02
984,67	-1,3267E-01
984,96	-3,7998E-02
985,25	8,5529E-02
985,55	-1,9611E-01
985,84	-1,3278E-01
986,13	-1,6511E-01
986,42	-3,6860E-02
986,71	-5,1170E-02
987,00	1,5252E-01
987,29	6,4223E-02
987,58	9,4052E-03
987,86	8,1205E-02
988,15	1,7187E-01
988,44	5,0704E-02
988,73	2,1670E-01
989,02	1,2515E-01
989,31	-6,8799E-02
989,60	2,5571E-02
989,89	4,1228E-02
990,18	-2,1653E-02
990,47	-1,1249E-01
990,76	-7,1022E-02
991,05	-1,0383E-01
991,34	3,2293E-02
991,63	-6,0442E-02
991,92	9,7269E-02
992,20	7,6730E-02
992,49	4,4675E-02
992,78	-7,1067E-02
993,07	9,0700E-02
993,36	-6,9572E-02
993,65	-1,1770E-02
993,94	9,6774E-02
994,22	-4,9517E-02
994,51	-1,1183E-01
994,80	-1,2755E-01
995,09	6,2109E-02
995,38	7,8413E-02
995,67	9,3827E-02
995,95	2,2764E-01
996,24	-2,3936E-01
996,53	-1,1906E-01
996,82	8,3418E-02
997,11	-7,2748E-02
997,39	-2,4041E-01
997,68	-1,7145E-01
997,97	8,0320E-02
998,26	-2,0175E-01
998,54	7,2377E-03
998,83	-2,0656E-02
999,12	-1,1956E-01
999,41	-1,9734E-01
999,69	-7,0478E-02
999,98	3,6011E-02
1000,27	-3,7936E-01
1000,56	0,0000E00
1000,84	-2,2115E-02
1001,13	2,4006E-01
1001,42	-3,6397E-01
1001,70	-1,9917E-01
1001,99	-7,1371E-02
1002,28	6,4158E-02
1002,56	6,1933E-02
1002,85	-1,3842E-01
1003,14	9,2239E-02
1003,42	-8,2505E-03
1003,71	5,7532E-02
1004,00	7,3049E-02
1004,28	7,5714E-02
1004,57	-2,4193E-02
1004,86	-2,3642E-01
1005,14	-4,1616E-01
1005,43	0,0000E00
1005,72	3,4961E-02
1006,00	2,6265E-01
1006,29	1,3279E-01
1006,57	-1,8230E-01
1006,86	9,7258E-02
1007,15	-1,0210E-01
1007,43	2,9005E-02
1007,72	9,2468E-02
1008,00	2,4259E-01
1008,29	3,9239E-02
1008,57	3,1660E-01
1008,86	-5,2805E-02
1009,14	1,7814E-01
1009,43	9,7466E-02
1009,71	1,7044E-01
1010,00	4,4460E-01
1010,29	4,5345E-01
1010,57	3,7344E-01
1010,86	-1,7543E-01
1011,14	-1,0787E-02
1011,43	-6,6359E-02
1011,71	-5,7680E-02
1011,99	-1,5965E-01
1012,28	3,9674E-01
1012,56	-2,1496E-01
1012,85	3,4239E-01
1013,13	-2,0568E-01
1013,42	2,3906E-02
1013,70	2,4534E-01
1013,99	-2,6461E-02
1014,27	-3,3773E-01
1014,56	-1,2326E-01
1014,84	4,0037E-01
1015,12	1,3032E-01
1015,41	1,9039E-01
1015,69	-1,4133E-01
1015,98	-1,8478E-01
1016,26	3,2528E-01
1016,54	2,4449E-01
1016,83	-1,4727E-01
1017,11	1,5903E-01
1017,39	-2,1296E-01
1017,68	2,5806E-01
1017,96	-2,2696E-01
1018,25	-3,5741E-01
1018,53	-4,4495E-01
1018,81	-3,6234E-01
1019,10	3,1572E-02
1019,38	-1,0726E-01
1019,66	-3,5617E-01
1019,94	1,7534E-01
1020,23	-2,8713E-01
1020,51	1,7515E-01
1020,79	-3,4492E-02
1021,08	-7,1799E-01
1021,36	-2,1999E-01
1021,64	-6,9705E-02
1021,93	3,6634E-01
1022,21	-5,0181E-02
1022,49	-5,0181E-02
>>>>>End Processed Spectral Data<<<<<
