SpectraSuite Data File
++++++++++++++++++++++++++++++++++++
Date: Wed Mar 01 11:52:16 EET 2017
User: mkilpela
Dark Spectrum Present: Yes
Reference Spectrum Present: No
Number of Sampled Component Spectra: 1
Spectrometers: JAZA2845
Integration Time (usec): 89280 (JAZA2845)
Spectra Averaged: 1 (JAZA2845)
Boxcar Smoothing: 0 (JAZA2845)
Correct for Electrical Dark: No (JAZA2845)
Strobe/Lamp Enabled: No (JAZA2845)
Correct for Detector Non-linearity: No (JAZA2845)
Correct for Stray Light: No (JAZA2845)
Number of Pixels in Processed Spectrum: 2048
>>>>>Begin Processed Spectral Data<<<<<
340,21	0,0000E00
340,58	0,0000E00
340,96	0,0000E00
341,33	0,0000E00
341,70	-0,0000E00
342,07	0,0000E00
342,45	0,0000E00
342,82	0,0000E00
343,19	-0,0000E00
343,57	0,0000E00
343,94	-0,0000E00
344,31	-0,0000E00
344,68	0,0000E00
345,06	-0,0000E00
345,43	-0,0000E00
345,80	-0,0000E00
346,18	-0,0000E00
346,55	0,0000E00
346,92	-0,0000E00
347,29	0,0000E00
347,67	0,0000E00
348,04	0,0000E00
348,41	0,0000E00
348,78	0,0000E00
349,16	0,0000E00
349,53	-0,0000E00
349,90	0,0000E00
350,27	-6,3383E-03
350,64	-1,9561E-02
351,02	-7,7957E-04
351,39	1,0616E-03
351,76	-2,6814E-03
352,13	4,0360E-03
352,51	5,1867E-03
352,88	2,2491E-02
353,25	-2,3054E-02
353,62	1,4551E-02
353,99	-3,6896E-02
354,37	-6,6024E-03
354,74	-2,6775E-02
355,11	2,9577E-03
355,48	-9,2784E-03
355,85	-8,3664E-03
356,23	-1,6368E-02
356,60	-5,0668E-03
356,97	-6,3870E-03
357,34	-1,4632E-02
357,71	1,6378E-02
358,08	-9,0214E-03
358,46	-9,4458E-03
358,83	1,0246E-03
359,20	-1,8441E-02
359,57	9,9079E-03
359,94	-1,0581E-02
360,31	-1,5005E-02
360,69	-4,9133E-02
361,06	-9,7570E-03
361,43	-1,7713E-03
361,80	-1,5574E-02
362,17	9,0198E-03
362,54	-9,0346E-03
362,91	1,8518E-02
363,29	-1,2008E-02
363,66	9,3413E-03
364,03	-5,9275E-03
364,40	1,1643E-02
364,77	2,1483E-03
365,14	-1,9328E-02
365,51	-8,2625E-03
365,88	-9,4472E-03
366,26	0,0000E00
366,63	4,9598E-03
367,00	-1,0073E-02
367,37	-8,0315E-03
367,74	2,8118E-03
368,11	-9,8935E-03
368,48	6,3503E-03
368,85	-1,2913E-02
369,22	-5,0116E-03
369,59	-1,0129E-02
369,97	-6,9081E-03
370,34	3,0513E-03
370,71	6,2682E-03
371,08	5,5876E-03
371,45	1,7970E-03
371,82	-7,3695E-03
372,19	6,2598E-03
372,56	-9,7884E-03
372,93	1,2489E-02
373,30	1,2761E-02
373,67	2,1239E-03
374,04	-1,0653E-02
374,41	2,5064E-03
374,78	-2,5787E-02
375,15	-4,5165E-03
375,52	-1,8646E-03
375,89	1,9621E-03
376,26	-9,7933E-03
376,63	-6,9960E-03
377,00	-6,3093E-04
377,38	3,2237E-03
377,75	2,0727E-02
378,12	6,9114E-03
378,49	-9,9937E-03
378,86	1,0228E-02
379,23	-9,9057E-03
379,60	-3,3027E-03
379,97	-8,8212E-03
380,34	-5,6918E-03
380,71	-5,7895E-03
381,08	-3,4478E-03
381,45	-3,1896E-03
381,82	-1,9970E-02
382,19	4,1537E-04
382,55	-1,2021E-03
382,92	-1,7491E-03
383,29	-3,3704E-03
383,66	-3,8028E-03
384,03	4,8264E-03
384,40	3,0382E-03
384,77	-1,1757E-02
385,14	6,3644E-03
385,51	-2,2567E-03
385,88	8,0514E-03
386,25	1,0717E-02
386,62	-8,1315E-03
386,99	3,2814E-03
387,36	-1,2873E-02
387,73	-4,6980E-03
388,10	-9,5627E-03
388,47	6,0964E-03
388,84	-2,2671E-03
389,21	-5,7933E-03
389,58	3,0250E-03
389,94	5,0082E-03
390,31	1,2100E-03
390,68	-8,7484E-04
391,05	1,8506E-03
391,42	-4,1400E-03
391,79	6,5569E-03
392,16	-1,0491E-02
392,53	4,6275E-03
392,90	2,6155E-03
393,27	-7,0162E-03
393,63	5,9160E-04
394,00	6,1904E-03
394,37	6,0464E-03
394,74	-5,1145E-03
395,11	-2,5129E-03
395,48	-6,9690E-03
395,85	-5,8358E-03
396,22	-3,5015E-03
396,58	3,2742E-03
396,95	-2,6416E-03
397,32	-6,3594E-03
397,69	7,0353E-03
398,06	4,3383E-03
398,43	-4,0720E-03
398,80	8,4625E-03
399,16	3,9845E-03
399,53	6,7540E-03
399,90	4,5504E-04
400,27	2,4250E-03
400,64	-4,0214E-03
401,01	1,9468E-03
401,37	1,0782E-02
401,74	-2,5295E-03
402,11	-7,9280E-03
402,48	-4,7175E-03
402,85	7,3166E-03
403,22	-3,4661E-03
403,58	2,1738E-03
403,95	9,5525E-03
404,32	-7,6733E-03
404,69	-4,0407E-03
405,06	-2,8747E-03
405,42	3,0428E-03
405,79	-1,3887E-03
406,16	-8,9628E-04
406,53	-3,2408E-03
406,89	2,6323E-03
407,26	2,3734E-04
407,63	2,2988E-04
408,00	0,0000E00
408,37	-8,6633E-03
408,73	-1,3208E-03
409,10	4,2723E-03
409,47	-3,8152E-03
409,84	-1,7122E-03
410,20	-2,3849E-04
410,57	0,0000E00
410,94	-4,0776E-04
411,31	4,0580E-03
411,67	4,2378E-03
412,04	1,4858E-03
412,41	8,4579E-04
412,77	6,7230E-03
413,14	3,8284E-03
413,51	3,8650E-04
413,88	0,0000E00
414,24	-4,3395E-03
414,61	-1,3900E-03
414,98	-5,7281E-03
415,34	3,6327E-03
415,71	1,1890E-03
416,08	-7,4283E-03
416,45	7,4019E-03
416,81	-1,7865E-03
417,18	-5,4831E-03
417,55	-3,8112E-03
417,91	-1,4856E-03
418,28	-8,4559E-04
418,65	-4,4212E-03
419,01	2,2848E-03
419,38	-1,2807E-03
419,75	5,6675E-03
420,11	-3,4876E-03
420,48	8,6228E-03
420,85	0,0000E00
421,21	-1,8954E-03
421,58	2,4003E-03
421,95	-2,0178E-03
422,31	1,1197E-02
422,68	1,5719E-03
423,05	4,1567E-04
423,41	1,0583E-02
423,78	5,2728E-03
424,15	2,7743E-03
424,51	6,0211E-03
424,88	9,9715E-03
425,24	4,7933E-03
425,61	1,0810E-02
425,98	7,2020E-03
426,34	8,9238E-03
426,71	3,4635E-03
427,07	1,2032E-02
427,44	1,1154E-02
427,81	6,9966E-03
428,17	9,2306E-03
428,54	1,8055E-02
428,90	6,5674E-03
429,27	1,7887E-02
429,64	1,9622E-02
430,00	1,8350E-02
430,37	2,1493E-02
430,73	2,1449E-02
431,10	2,1106E-02
431,46	1,7125E-02
431,83	2,4119E-02
432,20	1,8819E-02
432,56	2,6763E-02
432,93	2,6340E-02
433,29	3,5797E-02
433,66	3,4216E-02
434,02	3,6645E-02
434,39	3,9363E-02
434,75	4,4240E-02
435,12	5,7952E-02
435,49	5,0240E-02
435,85	4,9346E-02
436,22	5,8937E-02
436,58	6,3197E-02
436,95	6,1112E-02
437,31	6,9699E-02
437,68	7,0499E-02
438,04	8,5599E-02
438,41	8,5608E-02
438,77	9,2596E-02
439,14	9,2773E-02
439,50	1,0389E-01
439,87	1,0203E-01
440,23	1,1333E-01
440,60	1,1771E-01
440,96	1,2070E-01
441,33	1,1877E-01
441,69	1,2384E-01
442,06	1,3286E-01
442,42	1,4684E-01
442,78	1,4170E-01
443,15	1,4954E-01
443,51	1,4977E-01
443,88	1,5623E-01
444,24	1,5838E-01
444,61	1,6266E-01
444,97	1,7713E-01
445,34	1,6721E-01
445,70	1,8640E-01
446,07	1,7338E-01
446,43	1,8115E-01
446,79	1,8968E-01
447,16	1,7388E-01
447,52	1,7984E-01
447,89	1,9303E-01
448,25	1,8159E-01
448,62	1,8785E-01
448,98	1,7915E-01
449,34	1,9091E-01
449,71	1,8311E-01
450,07	1,8567E-01
450,44	1,9215E-01
450,80	1,9195E-01
451,16	1,8498E-01
451,53	1,7578E-01
451,89	1,7690E-01
452,25	1,7503E-01
452,62	1,7600E-01
452,98	1,7220E-01
453,35	1,6835E-01
453,71	1,6249E-01
454,07	1,6172E-01
454,44	1,5284E-01
454,80	1,5760E-01
455,16	1,4976E-01
455,53	1,5231E-01
455,89	1,4314E-01
456,25	1,3666E-01
456,62	1,3621E-01
456,98	1,3174E-01
457,34	1,2808E-01
457,71	1,2069E-01
458,07	1,2389E-01
458,43	1,1264E-01
458,80	1,0781E-01
459,16	1,0205E-01
459,52	1,0690E-01
459,89	1,0645E-01
460,25	1,0050E-01
460,61	8,4894E-02
460,98	8,7530E-02
461,34	9,1509E-02
461,70	8,1842E-02
462,07	8,3385E-02
462,43	8,4809E-02
462,79	7,7879E-02
463,15	7,9614E-02
463,52	7,8436E-02
463,88	7,6698E-02
464,24	7,2542E-02
464,61	7,1587E-02
464,97	7,0748E-02
465,33	6,4232E-02
465,69	6,2934E-02
466,06	6,8845E-02
466,42	6,4278E-02
466,78	6,6106E-02
467,14	5,9107E-02
467,51	5,4383E-02
467,87	5,5019E-02
468,23	4,7742E-02
468,59	5,1074E-02
468,95	4,7526E-02
469,32	4,3649E-02
469,68	4,1997E-02
470,04	4,0350E-02
470,40	3,9934E-02
470,77	3,8251E-02
471,13	3,4635E-02
471,49	3,6211E-02
471,85	2,9650E-02
472,21	3,1011E-02
472,58	3,0423E-02
472,94	2,5923E-02
473,30	2,3542E-02
473,66	2,2571E-02
474,02	2,4047E-02
474,39	2,3344E-02
474,75	2,6209E-02
475,11	1,9631E-02
475,47	2,1452E-02
475,83	1,6465E-02
476,19	1,7394E-02
476,56	1,9393E-02
476,92	1,6994E-02
477,28	1,7026E-02
477,64	1,4582E-02
478,00	1,5710E-02
478,36	1,3133E-02
478,72	1,1193E-02
479,09	9,1071E-03
479,45	1,3129E-02
479,81	9,7053E-03
480,17	8,2276E-03
480,53	7,7645E-03
480,89	4,1477E-03
481,25	5,6865E-03
481,61	5,0274E-03
481,97	7,2089E-03
482,34	4,0300E-03
482,70	4,2202E-03
483,06	4,5493E-03
483,42	4,9230E-03
483,78	4,5307E-03
484,14	7,1179E-03
484,50	4,6175E-03
484,86	4,4417E-03
485,22	5,2357E-03
485,58	3,7999E-03
485,94	3,2415E-03
486,31	2,1104E-03
486,67	3,9472E-03
487,03	1,3214E-03
487,39	2,1959E-03
487,75	1,6282E-03
488,11	2,3437E-03
488,47	3,8467E-03
488,83	2,2141E-03
489,19	-3,3343E-04
489,55	1,0310E-03
489,91	4,0301E-03
490,27	2,1219E-03
490,63	-8,5905E-04
490,99	6,5320E-04
491,35	1,9787E-03
491,71	8,3775E-04
492,07	1,3632E-03
492,43	2,6690E-03
492,79	-2,5627E-04
493,15	3,8831E-04
493,51	8,8386E-04
493,87	1,9199E-04
494,23	-1,2660E-04
494,59	0,0000E00
494,95	-1,4405E-03
495,31	3,7179E-04
495,67	-2,0600E-03
496,03	-1,4028E-03
496,39	1,8555E-04
496,75	-1,4774E-03
497,11	-8,4759E-04
497,47	-4,1719E-04
497,83	2,4859E-03
498,19	1,7742E-03
498,55	-1,8193E-03
498,91	-9,5051E-04
499,27	1,5966E-03
499,63	6,5133E-04
499,98	-5,8999E-05
500,34	-4,7448E-04
500,70	-6,4355E-04
501,06	3,4959E-04
501,42	-5,2350E-04
501,78	2,3057E-04
502,14	-1,1746E-03
502,50	-1,0324E-03
502,86	2,3743E-03
503,22	1,2088E-03
503,58	1,6327E-03
503,94	1,3777E-03
504,29	-1,6991E-04
504,65	-1,8064E-03
505,01	1,4573E-03
505,37	0,0000E00
505,73	5,6854E-04
506,09	-3,9967E-04
506,45	-3,9414E-04
506,81	7,2727E-04
507,16	1,1024E-04
507,52	-1,0589E-03
507,88	5,5970E-05
508,24	-3,9120E-04
508,60	-2,5609E-03
508,96	7,7268E-04
509,32	9,3994E-04
509,67	-7,2008E-04
510,03	-1,4523E-03
510,39	-3,3253E-04
510,75	2,3176E-03
511,11	-5,5288E-05
511,47	1,9674E-03
511,82	2,2862E-03
512,18	-1,1593E-03
512,54	4,9605E-04
512,90	-6,0657E-04
513,26	-1,6770E-04
513,61	-1,2642E-03
513,97	1,0337E-03
514,33	-6,5807E-04
514,69	-1,2837E-03
515,05	5,5367E-05
515,40	6,6007E-04
515,76	-1,5290E-03
516,12	-4,4265E-04
516,48	5,5225E-04
516,83	7,2566E-04
517,19	-2,7342E-04
517,55	6,5888E-04
517,91	1,0714E-03
518,26	-4,4392E-04
518,62	-1,3122E-03
518,98	-6,0100E-04
519,34	1,3309E-03
519,69	9,9102E-04
520,05	-3,8516E-04
520,41	4,3724E-04
520,77	-1,1509E-03
521,12	-5,5391E-05
521,48	6,6502E-04
521,84	-1,6723E-04
522,19	3,8538E-04
522,55	-1,1995E-03
522,91	-2,7438E-04
523,27	-5,9883E-04
523,62	-2,2269E-04
523,98	2,1562E-03
524,34	-8,7212E-04
524,69	-1,9646E-03
525,05	-2,5685E-03
525,41	-3,8333E-04
525,76	-3,3206E-04
526,12	2,2188E-04
526,48	4,4391E-04
526,83	4,4286E-04
527,19	2,1701E-04
527,55	7,7145E-04
527,90	-7,6083E-04
528,26	2,1844E-04
528,62	4,9109E-04
528,97	-2,1815E-04
529,33	4,4060E-04
529,69	5,4698E-04
530,04	1,7354E-03
530,40	1,2159E-03
530,76	1,8951E-03
531,11	3,0261E-03
531,47	9,2916E-04
531,82	1,7985E-03
532,18	1,0888E-03
532,54	-5,4084E-05
532,89	3,2376E-04
533,25	1,0358E-03
533,60	-8,5993E-04
533,96	5,4169E-05
534,32	1,0250E-03
534,67	-2,6989E-03
535,03	-3,7877E-04
535,38	8,1869E-04
535,74	-1,6066E-04
536,10	1,0799E-03
536,45	-1,0169E-03
536,81	-1,0711E-04
537,16	-1,0727E-03
537,52	-1,0690E-04
537,87	7,0344E-04
538,23	-1,5991E-04
538,58	4,7499E-04
538,94	2,1299E-04
539,30	5,2866E-05
539,65	-2,0853E-04
540,01	1,3405E-03
540,36	-4,2094E-04
540,72	-1,1060E-03
541,07	9,8651E-04
541,43	1,0332E-04
541,78	7,9170E-04
542,14	-9,8972E-04
542,49	-2,1020E-04
542,85	4,7136E-04
543,20	1,5096E-03
543,56	-2,3408E-03
543,91	-6,2500E-04
544,27	-3,6541E-04
544,62	2,0726E-04
544,98	1,0442E-03
545,33	-3,0980E-04
545,69	1,5300E-04
546,04	-1,0235E-03
546,40	-9,3390E-04
546,75	4,6211E-04
547,10	-8,7879E-04
547,46	-8,8255E-04
547,81	-1,3501E-03
548,17	-1,4856E-03
548,52	-3,0783E-04
548,88	-1,0270E-04
549,23	1,0276E-03
549,59	-2,2674E-03
549,94	-2,5480E-04
550,29	-1,5894E-03
550,65	9,7416E-04
551,00	4,6314E-04
551,36	-2,3076E-03
551,71	-2,0378E-03
552,06	5,0859E-04
552,42	-1,0832E-03
552,77	-2,1611E-03
553,13	-2,5371E-04
553,48	-6,6875E-04
553,83	-1,9800E-03
554,19	-1,1751E-03
554,54	-5,1400E-05
554,90	-5,1495E-05
555,25	-4,0941E-04
555,60	1,8617E-03
555,96	1,6981E-03
556,31	-1,0297E-03
556,66	2,0655E-04
557,02	-3,1147E-04
557,37	-1,0333E-04
557,72	1,7645E-03
558,08	-1,6548E-03
558,43	-1,1863E-03
558,79	1,0960E-03
559,14	8,2573E-04
559,49	1,0365E-03
559,85	5,7434E-04
560,20	5,7312E-04
560,55	9,3659E-04
560,90	8,9116E-04
561,26	1,0576E-04
561,61	1,0522E-04
561,96	-6,9023E-04
562,32	4,7583E-04
562,67	1,1147E-03
563,02	-1,0548E-04
563,38	3,1581E-04
563,73	-1,6040E-04
564,08	-2,1862E-03
564,43	-1,6137E-04
564,79	1,2397E-03
565,14	1,2946E-03
565,49	1,4449E-03
565,84	-1,7630E-03
566,20	1,4085E-03
566,55	5,4291E-05
566,90	-2,1094E-03
567,25	-5,9786E-04
567,61	-9,2639E-04
567,96	-2,7324E-04
568,31	-2,8583E-03
568,66	5,4640E-04
569,02	2,0520E-03
569,37	-5,5044E-05
569,72	9,9346E-04
570,07	-4,9560E-04
570,42	7,1721E-04
570,78	9,9391E-04
571,13	1,3933E-03
571,48	-1,2799E-03
571,83	-7,2689E-04
572,18	-1,6793E-03
572,54	1,9458E-03
572,89	-7,3465E-04
573,24	-2,2037E-03
573,59	-5,0040E-04
573,94	2,7969E-04
574,30	2,0758E-03
574,65	-1,6293E-03
575,00	7,2816E-04
575,35	-1,1402E-04
575,70	5,6514E-05
576,05	5,0816E-04
576,40	1,2960E-03
576,76	-3,9355E-04
577,11	1,8797E-03
577,46	1,5840E-03
577,81	4,5333E-04
578,16	-1,4181E-03
578,51	-2,9008E-03
578,86	-1,1300E-04
579,21	9,0666E-04
579,57	-5,2027E-04
579,92	-2,2725E-04
580,27	4,0260E-04
580,62	-1,7377E-04
580,97	5,1438E-04
581,32	2,2831E-04
581,67	2,8783E-04
582,02	4,0119E-04
582,37	1,1472E-04
582,72	1,1427E-03
583,08	-8,1120E-04
583,43	1,7374E-03
583,78	-1,1651E-03
584,13	7,4955E-04
584,48	8,0858E-04
584,83	-1,3430E-03
585,18	1,3247E-03
585,53	-1,2112E-03
585,88	-3,4725E-04
586,23	1,8736E-03
586,58	5,2285E-04
586,93	4,0333E-04
587,28	-1,1690E-04
587,63	7,5328E-04
587,98	-2,4453E-03
588,33	2,1589E-03
588,68	-1,0537E-03
589,03	8,7238E-04
589,38	5,8295E-05
589,73	-2,3454E-04
590,08	1,4598E-03
590,43	1,0476E-03
590,78	3,4958E-04
591,13	8,7466E-04
591,48	-7,5384E-04
591,83	-1,9697E-03
592,18	1,2306E-03
592,53	5,8674E-05
592,88	1,9318E-03
593,23	1,7691E-04
593,58	-1,2894E-03
593,93	-1,0665E-03
594,28	2,3374E-04
594,63	-1,1799E-03
594,98	7,5987E-04
595,33	9,4357E-04
595,68	-1,1819E-03
596,02	1,3609E-03
596,37	-7,6837E-04
596,72	3,2564E-03
597,07	7,1581E-04
597,42	-4,7520E-04
597,77	-5,9636E-04
598,12	1,7863E-04
598,47	-2,7100E-03
598,82	-1,6197E-03
599,17	4,7952E-04
599,52	-1,2083E-03
599,86	-1,4519E-03
600,21	-1,1436E-03
600,56	2,4385E-04
600,91	-3,0259E-04
601,26	-7,2856E-04
601,61	-5,4830E-04
601,96	-2,4363E-04
602,30	-1,2136E-03
602,65	1,8321E-04
603,00	-7,9853E-04
603,35	-1,2278E-03
603,70	1,1060E-03
604,05	-1,1145E-03
604,40	-1,4287E-03
604,74	-6,7451E-04
605,09	-1,1126E-03
605,44	-7,4917E-04
605,79	3,0959E-04
606,14	-6,8975E-04
606,48	2,2402E-03
606,83	3,7526E-04
607,18	-3,1539E-04
607,53	-5,7011E-04
607,88	1,0690E-03
608,22	8,2375E-04
608,57	1,5251E-03
608,92	-4,4404E-04
609,27	-1,7884E-03
609,62	8,3552E-04
609,96	-1,2193E-03
610,31	1,5429E-03
610,66	1,8742E-03
611,01	2,3208E-03
611,35	-2,0162E-03
611,70	1,3097E-04
612,05	-1,1065E-03
612,40	8,5435E-04
612,74	-1,7031E-03
613,09	-1,7735E-03
613,44	-7,2677E-04
613,79	-1,1251E-03
614,13	-1,8855E-03
614,48	-1,0588E-03
614,83	5,9793E-04
615,17	1,0611E-03
615,52	-2,0078E-03
615,87	-4,0553E-04
616,22	-6,0753E-04
616,56	4,0656E-04
616,91	5,4329E-04
617,26	-1,1561E-03
617,60	-4,0909E-04
617,95	-1,7115E-03
618,30	2,0733E-04
618,64	-1,3598E-04
618,99	2,0619E-04
619,34	1,1724E-03
619,68	-1,1773E-03
620,03	-2,6324E-03
620,38	1,1802E-03
620,72	-7,5677E-04
621,07	2,0902E-04
621,42	-2,7805E-04
621,76	-1,5394E-03
622,11	-1,3978E-04
622,45	1,4812E-03
622,80	-2,1846E-03
623,15	2,1279E-03
623,49	2,1283E-04
623,84	-7,1509E-04
624,18	1,4282E-04
624,53	3,5787E-04
624,88	-3,1342E-03
625,22	0,0000E00
625,57	-4,2728E-04
625,91	5,0298E-04
626,26	2,3247E-03
626,61	-1,9415E-03
626,95	-1,7344E-03
627,30	0,0000E00
627,64	-2,8389E-03
627,99	-5,1059E-04
628,33	-1,3106E-03
628,68	-1,7447E-03
629,03	-2,1981E-04
629,37	1,3231E-03
629,72	2,2206E-04
630,06	-7,3480E-05
630,41	-2,9616E-04
630,75	1,1916E-03
631,10	-3,7063E-04
631,44	1,6411E-03
631,79	-7,4512E-04
632,13	-3,7407E-04
632,48	2,2281E-03
632,82	8,2650E-04
633,17	9,8703E-04
633,51	1,9530E-03
633,86	1,9536E-03
634,20	1,8827E-03
634,55	2,2609E-04
634,89	2,5361E-03
635,24	-6,8776E-04
635,58	-2,4426E-03
635,93	-9,1447E-04
636,27	1,1509E-03
636,62	-1,0625E-03
636,96	9,1026E-04
637,30	-1,0010E-03
637,65	0,0000E00
637,99	1,0811E-03
638,34	-7,6719E-05
638,68	2,3201E-04
639,03	-4,8412E-03
639,37	1,5465E-03
639,71	-1,0032E-03
640,06	1,3219E-03
640,40	-1,7926E-03
640,75	-6,2184E-04
641,09	-2,5045E-03
641,44	-5,4721E-04
641,78	1,3231E-03
642,12	1,9698E-03
642,47	1,0973E-03
642,81	-5,5098E-04
643,15	1,6519E-03
643,50	3,9445E-04
643,84	2,3803E-04
644,19	-8,7690E-04
644,53	-1,6012E-04
644,87	-7,1652E-04
645,22	-1,1206E-03
645,56	1,9899E-03
645,90	-7,2063E-04
646,25	6,4396E-04
646,59	4,8674E-04
646,93	-1,6132E-04
647,28	-1,2910E-03
647,62	-2,7478E-03
647,96	8,1337E-04
648,31	-7,2874E-04
648,65	-1,5550E-03
648,99	-9,0146E-04
649,34	9,1413E-04
649,68	-1,7200E-03
650,02	1,6339E-03
650,36	-6,5685E-04
650,71	-9,0606E-04
651,05	-2,4494E-04
651,39	-1,9843E-03
651,74	-3,3469E-03
652,08	-8,3744E-05
652,42	0,0000E00
652,76	1,4298E-03
653,11	1,0909E-03
653,45	-5,0550E-04
653,79	-2,6129E-03
654,13	0,0000E00
654,48	-9,2989E-04
654,82	-8,5024E-04
655,16	-5,9754E-04
655,50	-1,8010E-03
655,85	1,5541E-03
656,19	2,5599E-03
656,53	-1,4599E-03
656,87	0,0000E00
657,21	-8,6438E-04
657,56	2,6110E-04
657,90	1,0401E-03
658,24	0,0000E00
658,58	2,0908E-03
658,92	-1,2153E-03
659,27	1,7433E-04
659,61	-1,4021E-03
659,95	-6,1191E-04
660,29	8,8266E-05
660,63	-2,9385E-03
660,97	-1,5874E-03
661,32	-2,3913E-03
661,66	-1,1588E-03
662,00	3,8189E-03
662,34	-8,9768E-05
662,68	3,5863E-04
663,02	-2,9600E-03
663,37	5,3748E-04
663,71	-1,1747E-03
664,05	9,9954E-04
664,39	4,5655E-04
664,73	1,2795E-03
665,07	-2,6594E-03
665,41	-1,5585E-03
665,75	2,2046E-03
666,09	1,4728E-03
666,44	-4,6406E-04
666,78	1,1154E-03
667,12	-1,4823E-03
667,46	-1,3115E-03
667,80	3,9192E-03
668,14	-1,3216E-03
668,48	1,0293E-03
668,82	0,0000E00
669,16	-1,0506E-03
669,50	1,7881E-03
669,84	7,6377E-04
670,18	-1,1497E-03
670,52	3,5383E-03
670,86	-1,3509E-03
671,20	9,6855E-04
671,54	0,0000E00
671,88	2,1531E-03
672,22	-3,8340E-04
672,57	-1,8557E-03
672,91	-3,0411E-03
673,25	-1,9599E-03
673,59	-9,9112E-05
673,93	-6,3317E-03
674,27	-1,6828E-03
674,61	-4,4001E-03
674,95	-5,9527E-04
675,28	-4,1140E-03
675,62	-3,0049E-03
675,96	1,2870E-03
676,30	6,0586E-04
676,64	-8,0334E-04
676,98	8,1080E-04
677,32	-1,0305E-04
677,66	-4,1535E-04
678,00	-4,1008E-04
678,34	-2,8667E-03
678,68	2,1623E-03
679,02	-2,3853E-03
679,36	5,1982E-04
679,70	-1,4699E-03
680,04	2,1922E-03
680,38	-6,2331E-04
680,72	-3,1899E-04
681,06	-5,2976E-04
681,39	1,7865E-03
681,73	2,6506E-03
682,07	1,8247E-03
682,41	2,7981E-03
682,75	4,0998E-03
683,09	4,1610E-03
683,43	2,4824E-03
683,77	-4,1063E-03
684,11	2,7128E-03
684,44	-3,9200E-03
684,78	2,0675E-03
685,12	8,7179E-04
685,46	7,6474E-04
685,80	-8,8016E-04
686,14	-3,3961E-03
686,48	-8,8460E-04
686,81	-2,8768E-03
687,15	2,5612E-03
687,49	1,3419E-03
687,83	-1,3329E-03
688,17	-2,2648E-04
688,51	-1,1298E-04
688,84	-3,8714E-03
689,18	-3,3810E-04
689,52	1,5960E-03
689,86	-2,7301E-03
690,20	-4,2696E-03
690,53	-2,3168E-04
690,87	-1,4819E-03
691,21	1,7330E-03
691,55	6,9695E-04
691,88	9,2590E-04
692,22	-9,3575E-04
692,56	-2,5673E-03
692,90	-1,1638E-03
693,23	2,4629E-03
693,57	2,1128E-03
693,91	-1,1747E-04
694,25	0,0000E00
694,58	3,3282E-03
694,92	-1,1990E-03
695,26	3,4406E-03
695,60	-1,9141E-03
695,93	1,1904E-04
696,27	-2,2560E-03
696,61	3,6196E-04
696,94	0,0000E00
697,28	-7,2092E-04
697,62	3,2402E-03
697,96	-1,3442E-03
698,29	2,4077E-03
698,63	-1,9578E-03
698,97	-1,8445E-03
699,30	-4,0241E-03
699,64	-4,9476E-03
699,98	-1,7117E-03
700,31	1,3581E-03
700,65	1,2291E-04
700,99	-7,4396E-04
701,32	-3,5880E-03
701,66	-1,1173E-03
702,00	2,7331E-03
702,33	-4,9858E-04
702,67	-4,7273E-03
703,00	-1,9035E-03
703,34	1,7480E-03
703,68	-1,1352E-03
704,01	2,1608E-03
704,35	-3,8150E-04
704,69	-2,9079E-03
705,02	-3,5700E-03
705,36	-4,3229E-03
705,69	-3,8210E-03
706,03	-2,1734E-03
706,36	-7,7034E-04
706,70	-3,3354E-03
707,04	1,4001E-03
707,37	1,1515E-03
707,71	-2,5738E-04
708,04	1,2972E-04
708,38	-1,2919E-03
708,71	-1,6585E-03
709,05	1,4294E-03
709,39	2,2151E-03
709,72	-2,4779E-03
710,06	-1,0513E-03
710,39	5,5486E-03
710,73	1,1887E-03
711,06	1,1867E-03
711,40	-1,0532E-03
711,73	-4,7694E-03
712,07	-1,3199E-04
712,40	-9,2995E-04
712,74	-1,9995E-03
713,07	-4,1413E-03
713,41	-2,2727E-03
713,74	3,0645E-03
714,08	6,7178E-04
714,41	2,9650E-03
714,75	-2,6872E-04
715,08	-3,4704E-03
715,42	1,6191E-03
715,75	-1,2263E-03
716,08	-2,3121E-03
716,42	-1,3525E-04
716,75	2,8730E-03
717,09	-5,1966E-03
717,42	-2,7514E-04
717,76	-6,3019E-03
718,09	5,5111E-03
718,43	-2,4807E-03
718,76	1,3905E-04
719,09	9,7455E-04
719,43	-1,2428E-03
719,76	-2,9121E-03
720,10	2,5137E-03
720,43	-1,5278E-03
720,76	3,0786E-03
721,10	3,6195E-03
721,43	4,4878E-03
721,76	-1,4243E-03
722,10	9,9073E-04
722,43	2,6890E-03
722,77	5,6508E-04
723,10	-9,9703E-04
723,43	-1,2811E-03
723,77	3,0000E-03
724,10	-1,2810E-03
724,43	-2,8770E-04
724,77	2,8845E-04
725,10	0,0000E00
725,43	-3,3207E-03
725,77	-3,4762E-03
726,10	3,5211E-03
726,43	7,2582E-04
726,77	-2,5151E-03
727,10	3,3891E-03
727,43	-1,0217E-03
727,77	-5,8906E-04
728,10	5,9116E-04
728,43	-4,7411E-03
728,76	0,0000E00
729,10	2,6749E-03
729,43	-4,4622E-03
729,76	1,2071E-03
730,09	-1,0574E-03
730,43	-2,2555E-03
730,76	-1,9628E-03
731,09	4,6531E-03
731,42	1,2184E-03
731,76	1,3626E-03
732,09	9,2966E-03
732,42	1,5192E-03
732,75	-1,3762E-03
733,09	1,3932E-03
733,42	-2,6465E-03
733,75	2,0083E-03
734,08	9,3845E-04
734,41	4,0550E-03
734,75	1,8617E-03
735,08	2,3582E-03
735,41	1,8773E-03
735,74	-5,3990E-03
736,07	-4,4561E-03
736,41	-7,9572E-04
736,74	-8,0130E-04
737,07	-6,3810E-04
737,40	6,4048E-04
737,73	-1,2852E-03
738,06	1,1275E-03
738,40	-4,6564E-03
738,73	4,3491E-03
739,06	-4,0581E-03
739,39	-2,7948E-03
739,72	3,1595E-03
740,05	1,8079E-03
740,38	-1,9748E-03
740,72	1,1582E-03
741,05	-6,1679E-03
741,38	-2,6562E-03
741,71	5,0617E-04
742,04	-3,5403E-03
742,37	6,7429E-04
742,70	-2,3573E-03
743,03	-4,5603E-03
743,36	-1,3667E-03
743,69	-5,1173E-04
744,02	-1,2003E-03
744,36	2,7653E-03
744,69	-1,3855E-03
745,02	-2,6111E-03
745,35	3,3168E-03
745,68	-3,3171E-03
746,01	-6,1058E-03
746,34	1,7596E-03
746,67	-7,1283E-04
747,00	-2,6490E-03
747,33	-2,8636E-03
747,66	4,1133E-03
747,99	-7,3151E-03
748,32	-1,2570E-03
748,65	3,9933E-03
748,98	0,0000E00
749,31	-3,8253E-03
749,64	-7,5198E-03
749,97	1,4790E-03
750,30	7,4053E-04
750,63	-6,9975E-03
750,96	3,3279E-03
751,29	-2,2246E-03
751,62	-1,8582E-03
751,95	4,5293E-03
752,28	-4,1162E-03
752,61	-9,0757E-03
752,94	-1,8951E-04
753,27	7,6104E-03
753,60	3,4636E-03
753,92	-5,7268E-04
754,25	3,4698E-03
754,58	-1,1511E-03
754,91	-2,5382E-03
755,24	4,0772E-03
755,57	7,7922E-04
755,90	-4,5055E-03
756,23	4,3239E-03
756,56	1,7561E-03
756,89	4,3483E-03
757,22	1,5872E-03
757,54	1,7981E-03
757,87	6,0582E-04
758,20	-2,0155E-03
758,53	8,0561E-04
758,86	-7,0824E-03
759,19	8,1192E-04
759,52	-7,6524E-03
759,84	3,8945E-03
760,17	-6,5421E-03
760,50	-7,2170E-03
760,83	-3,1254E-03
761,16	-7,9007E-03
761,49	2,0909E-03
761,81	-2,9533E-03
762,14	8,5516E-04
762,47	-4,8666E-03
762,80	-2,7391E-03
763,13	1,0799E-02
763,45	0,0000E00
763,78	2,3808E-03
764,11	-8,5821E-04
764,44	-2,3769E-03
764,77	-1,5044E-03
765,09	4,3736E-04
765,42	2,1881E-03
765,75	-2,2029E-03
766,08	8,7958E-04
766,40	5,5600E-03
766,73	-1,9931E-03
767,06	-5,0798E-03
767,39	-6,0866E-03
767,71	2,0235E-03
768,04	2,2658E-03
768,37	2,4886E-03
768,70	2,9525E-03
769,02	4,0790E-03
769,35	6,1756E-03
769,68	-6,8990E-03
770,00	-9,1545E-04
770,33	3,0461E-03
770,66	4,6713E-04
770,99	-4,3869E-03
771,31	-4,7087E-04
771,64	-9,3578E-04
771,97	-1,2345E-02
772,29	-6,1026E-03
772,62	-3,1164E-03
772,95	-5,0208E-03
773,27	-3,6180E-03
773,60	-3,5897E-03
773,93	-3,3319E-03
774,25	7,7257E-03
774,58	-2,9126E-03
774,90	-4,5860E-03
775,23	2,4439E-03
775,56	-2,9519E-03
775,88	-5,3910E-03
776,21	-2,4757E-03
776,54	-1,1415E-02
776,86	-1,7321E-03
777,19	-4,9986E-04
777,51	-5,0294E-03
777,84	4,7826E-03
778,16	1,2750E-03
778,49	-1,4213E-02
778,82	-4,8394E-03
779,14	-5,6197E-03
779,47	-3,3299E-03
779,79	2,5654E-04
780,12	6,4974E-03
780,44	-3,0947E-03
780,77	7,2940E-03
781,10	5,7627E-03
781,42	6,0928E-03
781,75	2,3682E-03
782,07	-3,4225E-03
782,40	1,8701E-03
782,72	6,3691E-03
783,05	1,0711E-03
783,37	-3,4878E-03
783,70	-2,6897E-03
784,02	1,2521E-02
784,35	-4,3511E-03
784,67	-7,9800E-03
785,00	8,1777E-04
785,32	-2,7787E-04
785,65	-7,2215E-03
785,97	-1,0978E-03
786,30	-7,6120E-03
786,62	-5,0174E-03
786,94	-2,5550E-03
787,27	3,6595E-03
787,59	-1,9737E-03
787,92	-1,2319E-02
788,24	1,1289E-03
788,57	-8,4564E-03
788,89	-2,0006E-03
789,22	2,8331E-03
789,54	0,0000E00
789,86	3,1110E-03
790,19	-7,3909E-03
790,51	5,6694E-04
790,84	1,1395E-03
791,16	6,2708E-03
791,48	-1,9973E-03
791,81	-3,9804E-03
792,13	-6,8650E-03
792,45	5,4584E-03
792,78	-7,7061E-03
793,10	-6,8433E-03
793,43	-5,6772E-04
793,75	1,4822E-02
794,07	1,7303E-03
794,40	5,7324E-04
794,72	2,8358E-04
795,04	6,8451E-03
795,37	-3,4131E-03
795,69	-9,4762E-03
796,01	1,9927E-03
796,34	-1,1490E-03
796,66	-9,3162E-03
796,98	-5,0439E-03
797,30	-3,6801E-03
797,63	-3,6594E-03
797,95	3,1150E-03
798,27	-1,4242E-03
798,60	-2,2722E-03
798,92	-2,8378E-03
799,24	-5,8781E-03
799,56	1,4044E-03
799,89	-3,9763E-03
800,21	2,8137E-04
800,53	4,8325E-03
800,85	4,2280E-03
801,18	-1,1296E-03
801,50	4,7774E-03
801,82	8,2021E-03
802,14	5,3481E-03
802,47	-5,6384E-03
802,79	-2,5494E-03
803,11	8,4730E-03
803,43	2,2476E-03
803,75	2,2581E-03
804,08	4,2580E-03
804,40	1,0192E-02
804,72	1,7050E-03
805,04	-3,3939E-03
805,36	7,1540E-03
805,69	4,8094E-03
806,01	-1,9983E-03
806,33	-8,5880E-03
806,65	4,9081E-03
806,97	1,0135E-02
807,29	1,1585E-03
807,62	-5,7445E-03
807,94	-8,5957E-04
808,26	-8,7218E-04
808,58	4,0553E-03
808,90	-1,1931E-02
809,22	-2,9434E-03
809,54	-2,3303E-03
809,86	-8,7760E-04
810,18	-2,0541E-03
810,51	5,2564E-03
810,83	5,5988E-03
811,15	-2,9923E-03
811,47	-4,1363E-03
811,79	1,0946E-02
812,11	0,0000E00
812,43	-9,7983E-03
812,75	5,7241E-03
813,07	-9,1342E-04
813,39	-1,5178E-03
813,71	9,7291E-03
814,03	-6,9488E-03
814,35	-1,2699E-02
814,67	3,9168E-03
814,99	0,0000E00
815,31	-2,7435E-03
815,64	1,6020E-02
815,96	-3,3522E-03
816,28	-5,5736E-03
816,60	5,5403E-03
816,92	9,2982E-04
817,24	4,0538E-03
817,56	-5,5752E-03
817,88	6,9699E-03
818,19	-1,3104E-02
818,51	-1,2651E-02
818,83	0,0000E00
819,15	-3,1661E-04
819,47	-5,7449E-03
819,79	-1,8115E-02
820,11	-8,9934E-03
820,43	6,3995E-04
820,75	1,5918E-03
821,07	-3,2064E-03
821,39	1,6243E-03
821,71	3,9156E-03
822,03	-3,2688E-04
822,35	-6,8899E-03
822,67	3,9199E-03
822,99	-4,3361E-03
823,31	-1,0224E-02
823,62	8,3438E-03
823,94	-5,9647E-03
824,26	2,3512E-03
824,58	2,0195E-03
824,90	2,0303E-03
825,22	-6,0744E-03
825,54	-9,5676E-03
825,86	1,7023E-03
826,17	-9,1876E-03
826,49	2,0166E-03
826,81	-4,1123E-03
827,13	-6,9145E-03
827,45	-3,0891E-03
827,77	1,7255E-03
828,08	6,6368E-03
828,40	-3,8509E-03
828,72	-5,5997E-03
829,04	-1,0502E-02
829,36	1,4703E-02
829,67	6,0218E-03
829,99	-4,6789E-03
830,31	-1,1484E-02
830,63	8,7194E-03
830,95	-6,5080E-03
831,26	-1,4622E-03
831,58	6,8822E-03
831,90	7,2311E-04
832,22	4,3789E-03
832,53	7,4340E-04
832,85	-4,4989E-03
833,17	-6,7002E-03
833,49	7,1122E-03
833,80	-4,8789E-03
834,12	1,3979E-02
834,44	7,5895E-04
834,76	5,3336E-03
835,07	-1,8366E-02
835,39	-3,0901E-03
835,71	-3,0348E-03
836,02	1,3307E-02
836,34	-2,6713E-03
836,66	0,0000E00
836,97	-3,0732E-03
837,29	4,2437E-03
837,61	7,7642E-03
837,93	-2,3826E-03
838,24	1,7212E-02
838,56	-1,0116E-02
838,88	5,5890E-03
839,19	-3,1912E-03
839,51	-3,2059E-03
839,82	-8,8157E-03
840,14	1,1275E-02
840,46	-1,3614E-02
840,77	-2,0293E-03
841,09	9,7081E-03
841,41	-2,0341E-03
841,72	-7,7187E-03
842,04	-1,1010E-02
842,35	-8,5405E-03
842,67	3,2901E-03
842,99	-8,6479E-03
843,30	-6,6158E-03
843,62	-6,6731E-03
843,93	-1,5630E-02
844,25	-9,5529E-03
844,56	2,9663E-03
844,88	-4,2665E-04
845,20	-5,9312E-03
845,51	5,0989E-03
845,83	4,2909E-04
846,14	-1,2032E-02
846,46	2,5520E-03
846,77	-7,2513E-03
847,09	-1,3228E-02
847,40	-3,0565E-03
847,72	-1,6032E-02
848,03	-4,3922E-04
848,35	7,9941E-03
848,66	-3,1332E-03
848,98	-6,2635E-03
849,29	0,0000E00
849,61	2,7067E-03
849,92	1,2166E-02
850,24	9,0714E-03
850,55	9,5927E-03
850,87	-5,9559E-03
851,18	2,2855E-03
851,50	9,2797E-04
851,81	9,1648E-03
852,12	-1,8472E-02
852,44	6,9344E-03
852,75	9,4731E-03
853,07	-9,3846E-03
853,38	-6,6825E-03
853,70	2,3594E-03
854,01	-1,2817E-02
854,32	-5,7778E-03
854,64	6,8171E-03
854,95	-8,2288E-03
855,27	8,7534E-03
855,58	-7,3084E-03
855,89	1,3537E-02
856,21	5,4258E-03
856,52	1,0852E-02
856,83	7,9728E-03
857,15	1,7913E-02
857,46	-1,0437E-02
857,77	9,0334E-03
858,09	-5,0355E-04
858,40	-1,5143E-03
858,71	-1,0026E-02
859,03	-3,0537E-03
859,34	-5,1594E-04
859,65	-3,0351E-03
859,97	1,4320E-02
860,28	-5,7057E-03
860,59	3,1096E-03
860,91	8,9421E-03
861,22	-8,8790E-03
861,53	2,3568E-02
861,84	-8,9746E-03
862,16	1,6038E-02
862,47	-1,0714E-02
862,78	-3,7600E-03
863,10	-9,1047E-03
863,41	-5,4315E-04
863,72	-1,8549E-02
864,03	2,7002E-03
864,35	-1,7403E-02
864,66	-1,1056E-03
864,97	-1,0341E-02
865,28	-1,2787E-02
865,59	-2,0722E-02
865,91	-1,5238E-02
866,22	-1,0030E-02
866,53	-3,3576E-03
866,84	-6,2676E-03
867,15	4,0136E-03
867,47	-1,7191E-02
867,78	1,3763E-02
868,09	1,2015E-02
868,40	4,6035E-03
868,71	8,7317E-03
869,02	-1,5253E-02
869,34	-3,4314E-02
869,65	-4,1497E-03
869,96	2,3573E-03
870,27	9,5937E-03
870,58	-1,9035E-02
870,89	6,6628E-03
871,20	1,8115E-03
871,52	-2,3308E-02
871,83	-6,6947E-03
872,14	5,5198E-03
872,45	2,0311E-02
872,76	1,1896E-02
873,07	-1,1883E-02
873,38	1,0066E-02
873,69	2,4879E-03
874,00	9,5682E-03
874,31	3,7846E-03
874,62	3,1552E-03
874,94	-1,0955E-02
875,25	8,3060E-03
875,56	0,0000E00
875,87	0,0000E00
876,18	5,2748E-03
876,49	-3,3057E-03
876,80	3,2802E-03
877,11	-5,2032E-03
877,42	-1,4440E-02
877,73	3,9682E-03
878,04	-4,7335E-03
878,35	-1,1433E-02
878,66	5,9770E-03
878,97	-1,3447E-02
879,28	1,7550E-02
879,59	5,4501E-03
879,90	4,0973E-03
880,21	-1,7590E-02
880,52	6,0929E-03
880,83	5,4508E-03
881,14	-1,2254E-02
881,45	-4,7762E-03
881,76	1,6228E-02
882,07	-3,3889E-03
882,37	-3,0904E-02
882,68	-2,7014E-03
882,99	1,4925E-02
883,30	-1,5058E-02
883,61	-2,0103E-02
883,92	-6,0799E-03
884,23	-6,8224E-03
884,54	-4,6997E-03
884,85	1,0909E-02
885,16	-1,0221E-02
885,47	3,4129E-03
885,77	4,1231E-03
886,08	-1,6531E-02
886,39	0,0000E00
886,70	1,6449E-02
887,01	-9,6074E-03
887,32	-1,1560E-02
887,63	0,0000E00
887,93	-4,0816E-03
888,24	-1,5106E-02
888,55	-1,5778E-02
888,86	2,1315E-02
889,17	-1,5268E-02
889,47	4,1197E-03
889,78	-1,4477E-02
890,09	5,4880E-03
890,40	0,0000E00
890,71	-1,5049E-02
891,01	-9,7918E-03
891,32	-1,0915E-02
891,63	-6,1518E-03
891,94	2,5600E-02
892,25	3,3992E-03
892,55	0,0000E00
892,86	-9,6372E-03
893,17	-9,6908E-03
893,48	-3,5754E-02
893,78	4,1103E-03
894,09	1,3795E-03
894,40	1,6491E-02
894,70	-1,3991E-03
895,01	6,9185E-03
895,32	2,6326E-02
895,63	2,2873E-02
895,93	1,7481E-02
896,24	-1,6000E-02
896,55	3,4896E-03
896,85	-2,8059E-03
897,16	-1,0545E-02
897,47	6,9319E-04
897,77	-3,4586E-03
898,08	-4,8974E-03
898,39	-7,0258E-04
898,69	-9,1867E-03
899,00	-3,5697E-03
899,31	1,2084E-02
899,61	-2,1488E-03
899,92	2,8294E-03
900,23	7,7931E-03
900,53	-1,0736E-02
900,84	9,8695E-03
901,14	3,2262E-02
901,45	1,3391E-02
901,76	1,2026E-02
902,06	1,4519E-03
902,37	1,4475E-03
902,67	9,4962E-03
902,98	-1,0184E-02
903,29	-1,7416E-02
903,59	1,5233E-02
903,90	-1,7789E-02
904,20	-2,9620E-03
904,51	9,4723E-03
904,81	2,2219E-03
905,12	-1,9000E-02
905,42	-9,7774E-03
905,73	-1,5170E-03
906,03	-2,2265E-03
906,34	1,1920E-02
906,64	-1,3550E-02
906,95	9,0159E-03
907,25	6,1386E-03
907,56	7,7083E-03
907,86	7,7097E-03
908,17	1,0097E-02
908,47	-9,3843E-03
908,78	-4,6541E-03
909,08	9,4083E-03
909,39	-2,3620E-03
909,69	4,0003E-03
910,00	-2,5592E-02
910,30	-4,4755E-02
910,61	-7,1667E-03
910,91	8,0119E-03
911,21	-2,5903E-02
911,52	-3,3222E-03
911,82	-1,8145E-02
912,13	-2,5929E-02
912,43	7,4197E-03
912,74	-1,7573E-02
913,04	9,9961E-03
913,34	-5,8990E-03
913,65	-3,3985E-02
913,95	1,4676E-02
914,25	-2,5628E-03
914,56	-4,2941E-03
914,86	3,7111E-02
915,17	-5,2501E-03
915,47	-1,3029E-02
915,77	-2,0547E-02
916,08	-4,3882E-03
916,38	1,0372E-02
916,68	-1,4130E-02
916,99	8,9965E-03
917,29	1,5349E-02
917,59	-4,5354E-03
917,90	-2,3768E-02
918,20	1,8061E-02
918,50	3,5752E-03
918,80	7,2917E-03
919,11	-1,2826E-02
919,41	9,2902E-03
919,71	-1,1034E-02
920,02	1,0218E-02
920,32	-5,6487E-03
920,62	-8,5990E-03
920,92	2,5781E-02
921,23	-1,4414E-02
921,53	1,7287E-02
921,83	-6,7457E-03
922,13	1,7797E-02
922,44	-2,7305E-02
922,74	9,8399E-04
923,04	0,0000E00
923,34	4,9504E-03
923,64	-1,1843E-02
923,95	-3,2224E-02
924,25	4,0436E-03
924,55	-1,0317E-02
924,85	2,6793E-02
925,15	-6,2052E-03
925,46	-2,5655E-02
925,76	-1,7667E-02
926,06	-5,0739E-02
926,36	-3,8355E-02
926,66	-2,8657E-02
926,96	-4,8878E-02
927,26	9,7234E-03
927,57	-9,7225E-03
927,87	-4,3854E-03
928,17	1,0921E-02
928,47	4,4393E-03
928,77	7,7070E-03
929,07	1,1202E-03
929,37	-7,7772E-03
929,67	-4,1719E-02
929,98	-5,6249E-03
930,28	-2,4870E-02
930,58	4,5834E-03
930,88	-4,2181E-02
931,18	4,3282E-02
931,48	-6,9893E-03
931,78	1,5352E-02
932,08	-2,3965E-02
932,38	1,2112E-03
932,68	-5,0525E-02
932,98	-6,0759E-03
933,28	-2,6688E-02
933,58	-1,8308E-02
933,88	-1,4810E-02
934,18	-3,0077E-02
934,48	-1,9907E-02
934,78	1,3839E-02
935,08	1,5014E-02
935,38	-3,8426E-02
935,68	3,0297E-02
935,98	-6,3279E-03
936,28	5,4668E-02
936,58	-3,3772E-02
936,88	-2,9831E-02
937,18	-1,6918E-02
937,48	1,3311E-02
937,78	-5,3043E-03
938,08	-2,6939E-02
938,38	2,0090E-02
938,68	6,8592E-03
938,98	3,8868E-02
939,28	-5,6401E-02
939,57	-1,5361E-02
939,87	4,1595E-03
940,17	0,0000E00
940,47	3,2826E-02
940,77	3,9227E-02
941,07	5,7024E-02
941,37	3,2763E-02
941,67	1,0038E-02
941,97	1,1810E-02
942,26	3,2783E-02
942,56	4,7839E-02
942,86	1,5047E-02
943,16	7,3779E-03
943,46	-1,6745E-02
943,76	-2,2557E-02
944,06	-1,6750E-02
944,35	-4,4763E-02
944,65	4,6947E-02
944,95	3,0664E-03
945,25	6,3580E-03
945,55	-2,6416E-02
945,84	-4,8068E-02
946,14	1,4392E-02
946,44	-8,1922E-03
946,74	-6,8171E-02
947,03	7,4896E-02
947,33	-1,6343E-02
947,63	-2,7782E-02
947,93	-1,8563E-02
948,23	3,0949E-02
948,52	-2,7005E-02
948,82	-5,5071E-02
949,12	8,5820E-03
949,41	-7,9711E-02
949,71	-3,4745E-03
950,01	-7,5366E-02
950,31	-5,1543E-02
950,60	-1,8486E-03
950,90	1,5989E-02
951,20	0,0000E00
951,49	-2,0127E-02
951,79	5,4480E-02
952,09	4,1983E-02
952,38	-7,6728E-03
952,68	4,1894E-02
952,98	-2,9140E-02
953,27	2,5126E-02
953,57	-2,9929E-02
953,87	1,4810E-02
954,16	-3,8069E-02
954,46	-4,5060E-02
954,76	-9,8699E-02
955,05	-7,2929E-02
955,35	-7,7738E-03
955,64	-1,4156E-02
955,94	-2,2089E-02
956,24	-2,2032E-02
956,53	-5,4391E-02
956,83	-8,1756E-03
957,12	-1,2176E-02
957,42	-3,9424E-02
957,72	5,1957E-02
958,01	-3,1437E-02
958,31	6,2282E-02
958,60	-2,1370E-03
958,90	-6,4093E-03
959,19	3,4719E-02
959,49	-3,0390E-02
959,78	5,1726E-02
960,08	5,5063E-02
960,37	5,1934E-02
960,67	-2,0825E-02
960,96	-4,6924E-02
961,26	1,1476E-02
961,55	4,4461E-02
961,85	4,3263E-02
962,14	3,9444E-02
962,44	3,0431E-02
962,73	-1,1278E-01
963,03	2,4048E-03
963,32	8,8820E-02
963,62	1,4258E-02
963,91	-3,9724E-02
964,21	3,1849E-02
964,50	-1,2421E-02
964,80	-7,2093E-02
965,09	3,9688E-02
965,38	-2,8311E-02
965,68	-1,5350E-02
965,97	2,2572E-02
966,27	-4,1279E-02
966,56	5,2119E-03
966,85	-2,1028E-02
967,15	-5,2644E-03
967,44	-9,7051E-02
967,74	8,0260E-03
968,03	-5,4064E-03
968,32	5,4567E-03
968,62	4,0226E-02
968,91	7,6340E-02
969,20	-8,7515E-02
969,50	-5,2995E-02
969,79	0,0000E00
970,08	-3,1569E-02
970,38	8,9319E-02
970,67	-5,9328E-03
970,96	6,9904E-02
971,26	-3,4715E-02
971,55	-4,6820E-02
971,84	-4,8077E-02
972,13	-2,6649E-02
972,43	-1,3716E-01
972,72	3,4143E-02
973,01	6,1145E-03
973,31	-5,6116E-02
973,60	1,2876E-01
973,89	5,1265E-02
974,18	-3,2431E-02
974,48	1,2643E-02
974,77	3,3191E-03
975,06	3,5320E-02
975,35	-4,2563E-02
975,64	7,6885E-02
975,94	3,3673E-03
976,23	-8,5006E-02
976,52	-7,1314E-02
976,81	-1,0278E-02
977,10	-9,6269E-02
977,40	1,7780E-02
977,69	-7,0809E-03
977,98	-1,3849E-01
978,27	-4,9954E-02
978,56	1,8209E-02
978,86	-5,8847E-02
979,15	7,6849E-02
979,44	8,3123E-02
979,73	1,8854E-02
980,02	-3,7891E-02
980,31	-2,3030E-02
980,60	3,7999E-02
980,89	-5,2209E-02
981,19	-1,0118E-01
981,48	-3,8815E-02
981,77	-4,8529E-02
982,06	-1,8261E-01
982,35	-1,0198E-01
982,64	4,1310E-02
982,93	-3,5800E-02
983,22	-2,0433E-02
983,51	9,4198E-02
983,80	-1,4318E-01
984,09	-1,5667E-01
984,38	-2,1221E-02
984,67	-2,0542E-01
984,96	2,9554E-02
985,25	8,1027E-02
985,55	-2,2285E-02
985,84	-7,3256E-02
986,13	-5,3549E-02
986,42	-2,7645E-02
986,71	-3,7214E-02
987,00	-4,6219E-02
987,29	0,0000E00
987,58	-7,5242E-02
987,86	2,2929E-01
988,15	1,9974E-01
988,44	1,3828E-02
988,73	5,4175E-02
989,02	-5,0060E-03
989,31	-1,1794E-01
989,60	-1,0228E-01
989,89	-7,7302E-02
990,18	-2,1653E-02
990,47	-9,1065E-02
990,76	-2,0292E-02
991,05	9,3448E-02
991,34	-2,6911E-02
991,63	-6,5937E-02
991,92	-1,7165E-02
992,20	-3,2884E-02
992,49	4,4675E-02
992,78	-6,0134E-02
993,07	5,1019E-02
993,36	-5,7977E-03
993,65	9,4157E-02
993,94	1,2097E-01
994,22	-6,8085E-02
994,51	-1,7657E-02
994,80	-1,3970E-01
995,09	1,1801E-01
995,38	2,2217E-01
995,67	8,1317E-02
995,95	3,1616E-02
996,24	6,1374E-03
996,53	1,1906E-01
996,82	-1,2834E-02
997,11	-1,5762E-01
997,39	-2,0792E-01
997,68	-2,7695E-01
997,97	-1,0040E-01
998,26	-2,3057E-01
998,54	2,8951E-02
998,83	4,1313E-02
999,12	-2,8836E-01
999,41	-6,1244E-02
999,69	-9,8669E-02
999,98	-5,0415E-02
1000,27	-2,0042E-01
1000,56	3,6728E-02
1000,84	-2,2115E-02
1001,13	7,7438E-02
1001,42	-1,7440E-01
1001,70	-5,1638E-02
1001,99	-7,9301E-03
1002,28	-1,1228E-01
1002,56	3,0966E-02
1002,85	-6,1521E-02
1003,14	2,3828E-01
1003,42	1,8151E-01
1003,71	1,5616E-01
1004,00	2,7596E-01
1004,28	3,7857E-01
1004,57	2,1774E-01
1004,86	-1,0507E-01
1005,14	-4,2483E-01
1005,43	1,0209E-01
1005,72	-4,3701E-02
1006,00	-2,8892E-01
1006,29	2,6558E-02
1006,57	-2,5522E-01
1006,86	1,6799E-01
1007,15	-1,1139E-01
1007,43	-9,6683E-03
1007,72	-2,7740E-02
1008,00	-2,0378E-01
1008,29	-1,9620E-02
1008,57	5,1065E-02
1008,86	-2,4291E-01
1009,14	2,5150E-01
1009,43	-3,5738E-01
1009,71	9,5873E-02
1010,00	-1,6796E-01
1010,29	2,2145E-01
1010,57	2,0272E-01
1010,86	-2,9238E-01
1011,14	2,1574E-02
1011,43	-1,2166E-01
1011,71	1,6150E-01
1011,99	-4,6755E-01
1012,28	-3,2460E-01
1012,56	1,4708E-01
1012,85	1,9565E-01
1013,13	4,8394E-02
1013,42	2,3906E-02
1013,70	1,8400E-01
1013,99	1,5877E-01
1014,27	1,4289E-01
1014,56	-4,1085E-02
1014,84	1,8081E-01
1015,12	7,8191E-02
1015,41	3,5539E-01
1015,69	1,2848E-02
1015,98	-1,9900E-01
1016,26	-1,2728E-01
1016,54	2,7022E-01
1016,83	1,4727E-02
1017,11	1,8795E-01
1017,39	2,9814E-01
1017,68	-2,1505E-01
1017,96	-1,2767E-01
1018,25	-1,2432E-01
1018,53	0,0000E00
1018,81	2,4156E-01
1019,10	0,0000E00
1019,38	-1,2258E-01
1019,66	-3,5617E-02
1019,94	4,9414E-01
1020,23	-4,2225E-01
1020,51	2,2291E-01
1020,79	-2,9318E-01
1021,08	-4,4302E-01
1021,36	-1,5230E-01
1021,64	-3,6595E-01
1021,93	1,5928E-01
1022,21	2,0073E-01
1022,49	2,0073E-01
>>>>>End Processed Spectral Data<<<<<
