SpectraSuite Data File
++++++++++++++++++++++++++++++++++++
Date: Wed Mar 01 11:46:37 EET 2017
User: mkilpela
Dark Spectrum Present: Yes
Reference Spectrum Present: No
Number of Sampled Component Spectra: 1
Spectrometers: JAZA2845
Integration Time (usec): 89280 (JAZA2845)
Spectra Averaged: 1 (JAZA2845)
Boxcar Smoothing: 0 (JAZA2845)
Correct for Electrical Dark: No (JAZA2845)
Strobe/Lamp Enabled: No (JAZA2845)
Correct for Detector Non-linearity: No (JAZA2845)
Correct for Stray Light: No (JAZA2845)
Number of Pixels in Processed Spectrum: 2048
>>>>>Begin Processed Spectral Data<<<<<
340,21	-0,0000E00
340,58	-0,0000E00
340,96	-0,0000E00
341,33	0,0000E00
341,70	-0,0000E00
342,07	0,0000E00
342,45	0,0000E00
342,82	-0,0000E00
343,19	0,0000E00
343,57	-0,0000E00
343,94	0,0000E00
344,31	0,0000E00
344,68	0,0000E00
345,06	0,0000E00
345,43	0,0000E00
345,80	0,0000E00
346,18	0,0000E00
346,55	0,0000E00
346,92	-0,0000E00
347,29	-0,0000E00
347,67	0,0000E00
348,04	0,0000E00
348,41	0,0000E00
348,78	0,0000E00
349,16	0,0000E00
349,53	-0,0000E00
349,90	-0,0000E00
350,27	-1,2677E-02
350,64	-3,4519E-02
351,02	2,3387E-03
351,39	4,9543E-03
351,76	8,0443E-04
352,13	-5,0450E-03
352,51	-5,9277E-03
352,88	1,1246E-02
353,25	-1,7931E-02
353,62	7,2757E-02
353,99	-6,5110E-03
354,37	-3,3012E-03
354,74	3,6816E-02
355,11	-1,3310E-02
355,48	-9,2784E-04
355,85	-3,0119E-03
356,23	4,5467E-03
356,60	4,6262E-03
356,97	1,1405E-03
357,34	6,9310E-03
357,71	1,7548E-02
358,08	2,2144E-02
358,46	3,0362E-03
358,83	4,4401E-03
359,20	3,1964E-02
359,57	1,5508E-02
359,94	-1,1337E-03
360,31	0,0000E00
360,69	-1,6973E-02
361,06	-1,7740E-03
361,43	-6,0731E-03
361,80	7,0791E-03
362,17	-1,0824E-02
362,54	-2,0533E-03
362,91	-7,1222E-04
363,29	-7,2050E-03
363,66	-1,0419E-02
364,03	-2,4407E-03
364,40	1,2045E-03
364,77	1,2276E-03
365,14	1,9328E-02
365,51	2,8643E-02
365,88	-3,6739E-03
366,26	1,8212E-02
366,63	3,7199E-03
367,00	-8,0585E-03
367,37	-3,6142E-03
367,74	3,5147E-03
368,11	-9,8935E-03
368,48	2,3092E-03
368,85	8,9828E-03
369,22	-9,3968E-03
369,59	-1,0804E-02
369,97	-7,6757E-03
370,34	1,4239E-02
370,71	9,0106E-03
371,08	1,3038E-02
371,45	8,2662E-03
371,82	2,2675E-03
372,19	1,2967E-02
372,56	5,1518E-04
372,93	3,3305E-03
373,30	7,7337E-03
373,67	6,1061E-03
374,04	-2,3673E-03
374,41	1,5456E-02
374,78	1,2701E-02
375,15	2,6346E-03
375,52	4,9723E-03
375,89	-5,8863E-03
376,26	8,4425E-03
376,63	1,2126E-02
377,00	1,0095E-02
377,38	1,9342E-02
377,75	7,6000E-02
378,12	2,6878E-02
378,49	-1,0582E-02
378,86	-9,3757E-03
379,23	1,8247E-02
379,60	4,5412E-03
379,97	2,0756E-03
380,34	4,6246E-03
380,71	-2,8947E-03
381,08	-3,0168E-03
381,45	1,1562E-02
381,82	-3,2509E-03
382,19	-1,1630E-02
382,55	-1,5628E-02
382,92	-1,3118E-03
383,29	1,3482E-02
383,66	2,1866E-02
384,03	1,2994E-02
384,40	2,4305E-03
384,77	1,3063E-03
385,14	8,3742E-03
385,51	6,0177E-03
385,88	1,0437E-02
386,25	1,0717E-02
386,62	1,7827E-02
386,99	1,5145E-03
387,36	-2,8257E-03
387,73	1,3818E-03
388,10	-5,6668E-03
388,47	-9,6259E-03
388,84	-1,0076E-03
389,21	2,0447E-03
389,58	-8,7390E-03
389,94	-2,5041E-03
390,31	7,8651E-03
390,68	-4,6658E-03
391,05	5,5517E-03
391,42	8,2801E-03
391,79	7,2855E-04
392,16	6,4110E-03
392,53	7,7125E-03
392,90	8,8926E-03
393,27	-7,0162E-03
393,63	-1,7748E-03
394,00	1,1255E-03
394,37	2,1162E-03
394,74	5,1145E-03
395,11	1,1727E-02
395,48	4,7516E-03
395,85	-5,5579E-04
396,22	7,8110E-03
396,58	8,6320E-03
396,95	-7,5945E-03
397,32	3,8156E-03
397,69	-1,8941E-03
398,06	0,0000E00
398,43	5,8171E-03
398,80	5,3852E-03
399,16	6,1096E-03
399,53	5,1330E-03
399,90	4,7779E-03
400,27	4,3650E-03
400,64	6,7862E-03
401,01	1,0290E-02
401,37	7,2853E-03
401,74	8,3475E-03
402,11	6,6892E-03
402,48	1,0925E-02
402,85	1,3065E-03
403,22	2,7729E-03
403,58	9,4198E-03
403,95	-1,8574E-03
404,32	7,9131E-03
404,69	1,3469E-03
405,06	8,8638E-03
405,42	3,5109E-03
405,79	6,7118E-03
406,16	4,0332E-03
406,53	1,5510E-02
406,89	4,5468E-03
407,26	8,0696E-03
407,63	8,7353E-03
408,00	5,8732E-03
408,37	2,4752E-04
408,73	6,3839E-03
409,10	1,7089E-03
409,47	2,9674E-03
409,84	2,2014E-03
410,20	-4,5313E-03
410,57	5,4796E-03
410,94	1,2640E-02
411,31	1,1106E-02
411,67	1,4721E-02
412,04	8,4904E-03
412,41	1,0361E-02
412,77	1,4668E-02
413,14	4,6343E-03
413,51	7,3434E-03
413,88	9,9870E-03
414,24	5,4715E-03
414,61	3,7730E-03
414,98	1,0271E-02
415,34	7,4567E-03
415,71	1,1296E-02
416,08	1,2902E-02
416,45	1,6804E-02
416,81	1,2109E-02
417,18	1,5817E-02
417,55	1,1433E-02
417,91	1,8252E-02
418,28	2,5579E-02
418,65	2,8296E-02
419,01	2,5756E-02
419,38	2,5614E-02
419,75	3,2993E-02
420,11	4,3159E-02
420,48	3,4701E-02
420,85	5,4602E-02
421,21	4,7384E-02
421,58	5,6735E-02
421,95	6,0534E-02
422,31	6,3954E-02
422,68	6,4251E-02
423,05	7,7314E-02
423,41	8,0219E-02
423,78	8,7739E-02
424,15	9,3931E-02
424,51	1,0558E-01
424,88	1,1675E-01
425,24	1,1671E-01
425,61	1,3617E-01
425,98	1,3864E-01
426,34	1,5399E-01
426,71	1,6095E-01
427,07	1,7600E-01
427,44	1,8414E-01
427,81	1,9571E-01
428,17	2,2666E-01
428,54	2,2059E-01
428,90	2,2536E-01
429,27	2,6282E-01
429,64	2,6835E-01
430,00	2,8344E-01
430,37	3,2299E-01
430,73	3,3650E-01
431,10	3,6489E-01
431,46	3,9118E-01
431,83	4,0306E-01
432,20	4,2822E-01
432,56	4,7727E-01
432,93	5,2063E-01
433,29	5,6458E-01
433,66	6,1869E-01
434,02	6,1922E-01
434,39	7,1731E-01
434,75	7,3165E-01
435,12	8,8259E-01
435,49	9,0173E-01
435,85	9,5457E-01
436,22	1,0356E00
436,58	1,1075E00
436,95	1,2237E00
437,31	1,2995E00
437,68	1,3129E00
438,04	1,5032E00
438,41	1,5600E00
438,77	1,6623E00
439,14	1,7337E00
439,50	1,9198E00
439,87	1,9408E00
440,23	2,0577E00
440,60	2,1647E00
440,96	2,1907E00
441,33	2,4003E00
441,69	2,3684E00
442,06	2,6389E00
442,42	2,8306E00
442,78	2,8398E00
443,15	2,9746E00
443,51	3,0151E00
443,88	3,1684E00
444,24	3,2306E00
444,61	3,3490E00
444,97	3,5047E00
445,34	3,4622E00
445,70	3,6743E00
446,07	3,5788E00
446,43	3,6365E00
446,79	3,8852E00
447,16	3,8055E00
447,52	3,8518E00
447,89	3,9960E00
448,25	3,8955E00
448,62	3,9678E00
448,98	3,9349E00
449,34	4,1016E00
449,71	3,9466E00
450,07	3,8322E00
450,44	3,8636E00
450,80	3,9721E00
451,16	3,7826E00
451,53	3,7709E00
451,89	3,7693E00
452,25	3,7147E00
452,62	3,6024E00
452,98	3,5106E00
453,35	3,4860E00
453,71	3,3955E00
454,07	3,3521E00
454,44	3,2234E00
454,80	3,1946E00
455,16	3,0079E00
455,53	3,0093E00
455,89	2,8598E00
456,25	2,7678E00
456,62	2,7300E00
456,98	2,5823E00
457,34	2,4960E00
457,71	2,4343E00
458,07	2,3310E00
458,43	2,1971E00
458,80	2,0829E00
459,16	2,0201E00
459,52	1,9546E00
459,89	1,8769E00
460,25	1,8161E00
460,61	1,7210E00
460,98	1,6703E00
461,34	1,6773E00
461,70	1,5563E00
462,07	1,5115E00
462,43	1,4957E00
462,79	1,4143E00
463,15	1,3704E00
463,52	1,3697E00
463,88	1,3109E00
464,24	1,2558E00
464,61	1,2557E00
464,97	1,2097E00
465,33	1,2051E00
465,69	1,1749E00
466,06	1,1110E00
466,42	1,0788E00
466,78	1,0701E00
467,14	9,8964E-01
467,51	9,6137E-01
467,87	9,3510E-01
468,23	8,9361E-01
468,59	8,6271E-01
468,95	8,1693E-01
469,32	8,0117E-01
469,68	7,7487E-01
470,04	7,3985E-01
470,40	7,0468E-01
470,77	6,6894E-01
471,13	6,2059E-01
471,49	6,1568E-01
471,85	5,8427E-01
472,21	5,4264E-01
472,58	5,2587E-01
472,94	4,9282E-01
473,30	4,8215E-01
473,66	4,3697E-01
474,02	4,2187E-01
474,39	4,0075E-01
474,75	3,7901E-01
475,11	3,6130E-01
475,47	3,4144E-01
475,83	3,1746E-01
476,19	3,0070E-01
476,56	2,7540E-01
476,92	2,5533E-01
477,28	2,3786E-01
477,64	2,2884E-01
478,00	2,1711E-01
478,36	2,0717E-01
478,72	1,9029E-01
479,09	1,7855E-01
479,45	1,6858E-01
479,81	1,5735E-01
480,17	1,4810E-01
480,53	1,4016E-01
480,89	1,2686E-01
481,25	1,1798E-01
481,61	1,0916E-01
481,97	1,0449E-01
482,34	9,9333E-02
482,70	9,5682E-02
483,06	8,7463E-02
483,42	7,8334E-02
483,78	7,7679E-02
484,14	7,3067E-02
484,50	6,8677E-02
484,86	6,8373E-02
485,22	6,0469E-02
485,58	5,9795E-02
485,94	5,6022E-02
486,31	5,0579E-02
486,67	4,4804E-02
487,03	4,4859E-02
487,39	4,2147E-02
487,75	4,0161E-02
488,11	3,2880E-02
488,47	3,5994E-02
488,83	3,3613E-02
489,19	2,9542E-02
489,55	2,5707E-02
489,91	2,7088E-02
490,27	2,1882E-02
490,63	2,2071E-02
490,99	1,7898E-02
491,35	1,6819E-02
491,71	1,5337E-02
492,07	1,6099E-02
492,43	1,3931E-02
492,79	1,2301E-02
493,15	1,2102E-02
493,51	1,0733E-02
493,87	9,1515E-03
494,23	8,2925E-03
494,59	7,7913E-03
494,95	7,2650E-03
495,31	6,8781E-03
495,67	5,9303E-03
496,03	4,5745E-03
496,39	3,0925E-03
496,75	2,9547E-03
497,11	3,2693E-03
497,47	2,0860E-03
497,83	2,0615E-03
498,19	3,1344E-03
498,55	3,6385E-03
498,91	2,3763E-03
499,27	4,7306E-03
499,63	1,1842E-03
499,98	2,9499E-03
500,34	2,6690E-03
500,70	1,2871E-03
501,06	5,8265E-04
501,42	1,5705E-03
501,78	-2,3057E-04
502,14	3,5238E-04
502,50	-1,1471E-04
502,86	2,6004E-03
503,22	3,6265E-03
503,58	2,0268E-03
503,94	1,7796E-03
504,29	1,8691E-03
504,65	0,0000E00
505,01	1,8497E-03
505,37	1,6382E-03
505,73	1,7056E-03
506,09	7,4225E-04
506,45	1,2950E-03
506,81	8,9510E-04
507,16	1,5985E-03
507,52	1,1704E-03
507,88	-2,2388E-04
508,24	0,0000E00
508,60	2,8393E-03
508,96	8,8306E-04
509,32	1,2717E-03
509,67	1,2740E-03
510,03	1,7875E-03
510,39	1,8289E-03
510,75	3,3109E-04
511,11	2,7644E-04
511,47	2,1313E-03
511,82	1,5613E-03
512,18	1,6561E-04
512,54	8,2676E-04
512,90	2,8123E-03
513,26	9,5032E-04
513,61	3,2979E-04
513,97	1,5778E-03
514,33	-4,9355E-04
514,69	-3,3487E-04
515,05	2,7130E-03
515,40	1,6502E-04
515,76	2,1842E-04
516,12	7,1931E-04
516,48	1,8776E-03
516,83	0,0000E00
517,19	3,8279E-04
517,55	8,2360E-04
517,91	2,1429E-03
518,26	2,6080E-03
518,62	4,3740E-04
518,98	2,1855E-03
519,34	1,9964E-03
519,69	-2,7528E-04
520,05	1,9258E-03
520,41	1,3117E-03
520,77	-9,8652E-04
521,12	3,3235E-04
521,48	-1,6626E-03
521,84	6,1318E-04
522,19	1,3764E-03
522,55	-9,2692E-04
522,91	9,8777E-04
523,27	1,5787E-03
523,62	1,0578E-03
523,98	1,6586E-03
524,34	1,4717E-03
524,69	1,0665E-03
525,05	1,1167E-04
525,41	1,2047E-03
525,76	9,4085E-04
526,12	-6,1016E-04
526,48	3,3294E-04
526,83	-2,2143E-04
527,19	1,0851E-03
527,55	6,6124E-04
527,90	2,6629E-03
528,26	1,6929E-03
528,62	6,0023E-04
528,97	2,2906E-03
529,33	3,3045E-03
529,69	1,2581E-03
530,04	-7,5926E-04
530,40	3,3160E-04
530,76	-1,0829E-04
531,11	2,7018E-04
531,47	1,0931E-03
531,82	-4,3601E-04
532,18	1,0888E-03
532,54	-2,7042E-04
532,89	-1,4569E-03
533,25	-4,3614E-04
533,60	2,1498E-04
533,96	2,6543E-03
534,32	-8,0918E-04
534,67	1,2415E-03
535,03	7,5755E-04
535,38	-1,1462E-03
535,74	2,3028E-03
536,10	7,5592E-04
536,45	5,3523E-04
536,81	-5,3555E-04
537,16	6,4363E-04
537,52	4,2761E-04
537,87	8,6577E-04
538,23	-8,5287E-04
538,58	9,4998E-04
538,94	5,3246E-05
539,30	1,7446E-03
539,65	-2,0853E-04
540,01	-8,0430E-04
540,36	7,8926E-04
540,72	2,6334E-04
541,07	-1,6615E-03
541,43	2,0665E-04
541,78	2,6390E-04
542,14	-5,2090E-05
542,49	-1,1561E-03
542,85	1,9902E-03
543,20	3,6439E-04
543,56	1,2236E-03
543,91	-7,8125E-04
544,27	1,5138E-03
544,62	1,9689E-03
544,98	2,0362E-03
545,33	1,4457E-03
545,69	1,1730E-03
546,04	1,3817E-03
546,40	-5,1883E-04
546,75	8,2153E-04
547,10	1,3957E-03
547,46	1,0383E-04
547,81	-4,6735E-04
548,17	5,6351E-04
548,52	-5,1306E-04
548,88	-5,6486E-04
549,23	-3,0827E-04
549,59	1,3914E-03
549,94	1,2230E-03
550,29	2,3585E-03
550,65	5,6398E-04
551,00	-8,2335E-04
551,36	4,6152E-04
551,71	-2,0378E-04
552,06	-2,0344E-04
552,42	1,5475E-04
552,77	4,6309E-04
553,13	1,4715E-03
553,48	7,7164E-04
553,83	-2,0842E-04
554,19	8,6859E-04
554,54	-2,2102E-03
554,90	1,1844E-03
555,25	4,6058E-04
555,60	-1,4997E-03
555,96	-1,0291E-04
556,31	-1,5445E-04
556,66	-1,3942E-03
557,02	3,6339E-04
557,37	7,7495E-04
557,72	1,1936E-03
558,08	5,1712E-05
558,43	9,8002E-04
558,79	1,1482E-03
559,14	-8,7734E-04
559,49	-6,2192E-04
559,85	-2,6107E-04
560,20	1,3547E-03
560,55	-2,6016E-04
560,90	1,1533E-03
561,26	1,6922E-03
561,61	1,5783E-03
561,96	8,4951E-04
562,32	1,2160E-03
562,67	-5,3079E-05
563,02	3,1644E-04
563,38	7,8954E-04
563,73	1,1228E-03
564,08	1,2797E-03
564,43	2,3668E-03
564,79	1,9404E-03
565,14	1,7801E-03
565,49	6,9570E-04
565,84	6,4111E-04
566,20	2,7086E-04
566,55	-2,4431E-03
566,90	-1,6226E-04
567,25	-3,8046E-04
567,61	-2,7247E-04
567,96	-1,2569E-03
568,31	1,2642E-03
568,66	2,7320E-04
569,02	-6,6551E-04
569,37	4,9540E-04
569,72	1,1038E-03
570,07	9,9121E-04
570,42	-1,1034E-04
570,78	2,4848E-03
571,13	2,0064E-03
571,48	5,5646E-04
571,83	-1,6774E-04
572,18	1,5114E-03
572,54	3,3357E-04
572,89	9,0418E-04
573,24	-1,1866E-03
573,59	3,3360E-04
573,94	5,0345E-04
574,30	-1,2342E-03
574,65	1,9663E-03
575,00	0,0000E00
575,35	1,1402E-04
575,70	-2,2605E-04
576,05	1,5809E-03
576,40	2,0285E-03
576,76	1,6867E-03
577,11	6,8352E-04
577,46	-6,7885E-04
577,81	-5,6666E-05
578,16	1,8151E-03
578,51	1,2513E-03
578,86	-9,6052E-04
579,21	3,9100E-03
579,57	3,4685E-04
579,92	1,2499E-03
580,27	1,1503E-04
580,62	1,7377E-04
580,97	9,7161E-04
581,32	1,7694E-03
581,67	1,7270E-04
582,02	1,5475E-03
582,37	6,3097E-04
582,72	-1,0856E-03
583,08	1,6224E-03
583,43	5,2122E-04
583,78	2,3302E-04
584,13	-2,8829E-04
584,48	1,3284E-03
584,83	2,3357E-04
585,18	-1,2671E-03
585,53	1,5572E-03
585,88	7,5237E-04
586,23	2,9275E-04
586,58	-1,3943E-03
586,93	-4,6095E-04
587,28	2,0458E-03
587,63	6,9534E-04
587,98	2,0378E-03
588,33	1,6338E-03
588,68	5,8537E-04
589,03	1,8611E-03
589,38	9,9101E-04
589,73	-1,1141E-03
590,08	-9,9269E-04
590,43	-4,6559E-04
590,78	-2,9132E-04
591,13	-1,2245E-03
591,48	0,0000E00
591,83	1,2745E-03
592,18	2,1682E-03
592,53	1,2321E-03
592,88	-1,1708E-04
593,23	-1,4742E-03
593,58	2,2858E-03
593,93	-1,3628E-03
594,28	0,0000E00
594,63	1,3569E-03
594,98	-5,8451E-04
595,33	4,7178E-04
595,68	2,4819E-03
596,02	1,2425E-03
596,37	-1,1821E-04
596,72	-6,5129E-04
597,07	1,2527E-03
597,42	-5,9399E-05
597,77	2,3854E-04
598,12	7,7408E-04
598,47	-4,8178E-04
598,82	8,3984E-04
599,17	1,1988E-04
599,52	8,4579E-04
599,86	4,8398E-04
600,21	-4,8153E-04
600,56	-9,7538E-04
600,91	0,0000E00
601,26	-2,7321E-03
601,61	-1,2184E-04
601,96	-1,7054E-03
602,30	2,4272E-04
602,65	1,8321E-04
603,00	7,9853E-04
603,35	-1,2278E-03
603,70	1,3518E-03
604,05	-1,8576E-04
604,40	1,8015E-03
604,74	-9,1979E-04
605,09	-9,2716E-04
605,44	1,5608E-03
605,79	2,1671E-03
606,14	1,8811E-03
606,48	-4,3560E-04
606,83	-1,5636E-03
607,18	1,0092E-03
607,53	6,9680E-04
607,88	1,0061E-03
608,22	-2,5346E-04
608,57	-8,2608E-04
608,92	5,7091E-04
609,27	-1,9162E-04
609,62	-1,9281E-04
609,96	1,9894E-03
610,31	1,0929E-03
610,66	1,9388E-04
611,01	6,4467E-05
611,35	1,0406E-03
611,70	-3,2744E-04
612,05	-1,3669E-03
612,40	-4,6003E-04
612,74	5,2405E-04
613,09	6,5687E-04
613,44	1,5857E-03
613,79	-3,9711E-04
614,13	1,0101E-03
614,48	1,3235E-04
614,83	-9,3011E-04
615,17	1,9895E-04
615,52	-2,2756E-03
615,87	8,1107E-04
616,22	-1,3501E-04
616,56	1,3552E-03
616,91	-4,0747E-04
617,26	1,7001E-03
617,60	-1,3636E-04
617,95	-1,3692E-03
618,30	-8,9845E-04
618,64	-2,0397E-04
618,99	1,9245E-03
619,34	-1,3793E-04
619,68	-1,4543E-03
620,03	-2,7017E-03
620,38	1,8050E-03
620,72	1,7199E-03
621,07	8,3606E-04
621,42	0,0000E00
621,76	2,1691E-03
622,11	2,5160E-03
622,45	-3,5266E-04
622,80	6,3424E-04
623,15	-7,0929E-05
623,49	5,6754E-04
623,84	7,1509E-05
624,18	0,0000E00
624,53	-9,3046E-04
624,88	-7,8354E-04
625,22	-1,4365E-04
625,57	2,1364E-04
625,91	1,2934E-03
626,26	1,0897E-03
626,61	-8,6288E-04
626,95	-1,0117E-03
627,30	7,9983E-04
627,64	1,7470E-03
627,99	8,7530E-04
628,33	8,0095E-04
628,68	-1,1631E-03
629,03	-9,5250E-04
629,37	-1,3231E-03
629,72	-2,0725E-03
630,06	7,3480E-04
630,41	8,8849E-04
630,75	8,9368E-04
631,10	-5,9300E-04
631,44	1,4919E-03
631,79	2,2354E-03
632,13	-2,2444E-04
632,48	8,1695E-04
632,82	3,5314E-03
633,17	0,0000E00
633,51	3,0046E-04
633,86	6,0112E-04
634,20	1,3556E-03
634,55	1,0551E-03
634,89	4,6111E-04
635,24	-1,9104E-03
635,58	1,9083E-03
635,93	2,3624E-03
636,27	4,6036E-04
636,62	6,0712E-04
636,96	2,0481E-03
637,30	9,2397E-04
637,65	1,5456E-04
637,99	1,4673E-03
638,34	2,1481E-03
638,68	6,1870E-04
639,03	2,7664E-03
639,37	-7,7327E-04
639,71	-1,2347E-03
640,06	2,0995E-03
640,40	4,6765E-04
640,75	-1,0105E-03
641,09	1,4870E-03
641,44	-1,4071E-03
641,78	-9,3394E-04
642,12	1,3395E-03
642,47	-2,8217E-03
642,81	1,8104E-03
643,15	-8,6528E-04
643,50	-1,4200E-03
643,84	3,9672E-04
644,19	0,0000E00
644,53	-7,2054E-04
644,87	4,5379E-03
645,22	1,6809E-03
645,56	1,5919E-04
645,90	2,8825E-03
646,25	5,0712E-03
646,59	1,5414E-03
646,93	2,0166E-03
647,28	2,1786E-03
647,62	-5,6573E-04
647,96	2,1961E-03
648,31	-3,2388E-04
648,65	-1,7187E-03
648,99	-2,2946E-03
649,34	-2,4931E-04
649,68	5,7333E-04
650,02	8,1694E-05
650,36	-4,1053E-04
650,71	1,1532E-03
651,05	4,0823E-04
651,39	3,3072E-04
651,74	-4,1837E-04
652,08	2,5961E-03
652,42	-8,3469E-04
652,76	3,3642E-04
653,11	3,1889E-03
653,45	-5,0550E-04
653,79	-3,3715E-04
654,13	-8,4124E-04
654,48	-1,9443E-03
654,82	2,2106E-03
655,16	-2,0487E-03
655,50	1,3722E-03
655,85	2,0721E-03
656,19	-4,2665E-04
656,53	2,4045E-03
656,87	5,1788E-04
657,21	1,3830E-03
657,56	7,8330E-04
657,90	6,9337E-04
658,24	2,3662E-03
658,58	1,3067E-03
658,92	3,2117E-03
659,27	-4,3584E-04
659,61	7,8866E-04
659,95	1,8357E-03
660,29	3,5306E-03
660,63	-8,9046E-04
660,97	6,1732E-04
661,32	-1,1514E-03
661,66	-8,9135E-04
662,00	-2,5755E-03
662,34	3,5907E-04
662,68	8,9658E-04
663,02	1,7042E-03
663,37	6,2706E-04
663,71	-1,1747E-03
664,05	1,7265E-03
664,39	2,3741E-03
664,73	-3,3816E-03
665,07	2,1092E-03
665,41	-1,1918E-03
665,75	-3,1232E-03
666,09	3,6821E-04
666,44	-4,6406E-04
666,78	0,0000E00
667,12	1,2970E-03
667,46	-1,4989E-03
667,80	-8,3983E-04
668,14	-1,1328E-03
668,48	0,0000E00
668,82	9,4855E-04
669,16	2,8653E-03
669,50	-2,8234E-03
669,84	-1,5275E-03
670,18	1,4371E-03
670,52	-7,6505E-04
670,86	0,0000E00
671,20	2,7119E-03
671,54	4,1769E-03
671,88	3,9148E-04
672,22	2,0129E-03
672,57	1,5627E-03
672,91	-3,9240E-04
673,25	-1,5680E-03
673,59	-1,5858E-03
673,93	1,0883E-03
674,27	-2,9697E-04
674,61	-1,4000E-03
674,95	0,0000E00
675,28	-2,6089E-03
675,62	1,5025E-03
675,96	-1,9800E-03
676,30	-1,3127E-03
676,64	-6,0251E-04
676,98	-1,7230E-03
677,32	-1,4428E-03
677,66	-4,1535E-04
678,00	-1,4353E-03
678,34	1,9452E-03
678,68	-4,0158E-03
679,02	-3,1113E-04
679,36	1,0396E-04
679,70	2,0998E-03
680,04	2,5054E-03
680,38	1,2466E-03
680,72	6,3798E-04
681,06	-1,9071E-03
681,39	-5,2543E-04
681,73	-1,6964E-03
682,07	-2,1467E-03
682,41	6,4571E-04
682,75	4,3155E-04
683,09	1,8138E-03
683,43	-1,2952E-03
683,77	-6,4836E-04
684,11	9,7661E-04
684,44	8,7111E-04
684,78	2,5027E-03
685,12	2,0705E-03
685,46	2,7312E-03
685,80	1,6503E-03
686,14	-1,0955E-04
686,48	1,6586E-03
686,81	-6,6388E-04
687,15	1,6703E-03
687,49	1,7892E-03
687,83	2,4436E-03
688,17	2,2648E-04
688,51	-4,8581E-03
688,84	-1,7080E-03
689,18	-3,0429E-03
689,52	1,1400E-04
689,86	9,1002E-04
690,20	2,1925E-03
690,53	3,7070E-03
690,87	-4,5596E-04
691,21	-5,4300E-03
691,55	-1,5100E-03
691,88	-9,2590E-04
692,22	-2,3394E-04
692,56	1,1670E-04
692,90	-1,7457E-03
693,23	-1,2901E-03
693,57	-4,2256E-03
693,91	-1,6446E-03
694,25	7,0873E-04
694,58	-4,7545E-04
694,92	1,1990E-04
695,26	3,4406E-03
695,60	-1,1963E-04
695,93	1,4285E-03
696,27	3,3247E-03
696,61	-1,6891E-03
696,94	3,2481E-03
697,28	3,6046E-03
697,62	-1,6801E-03
697,96	9,7761E-04
698,29	-3,6115E-04
698,63	-2,6920E-03
698,97	-8,6079E-04
699,30	8,5359E-04
699,64	-1,7317E-03
699,98	3,6678E-04
700,31	-9,8769E-04
700,65	-2,4583E-04
700,99	1,8599E-03
701,32	4,7015E-03
701,66	1,4898E-03
702,00	-1,2423E-03
702,33	-3,3654E-03
702,67	-1,4928E-03
703,00	1,5228E-03
703,34	-1,9977E-03
703,68	-6,6851E-03
704,01	-1,2711E-03
704,35	0,0000E00
704,69	-5,0573E-04
705,02	-3,8250E-04
705,36	1,9071E-03
705,69	1,5284E-03
706,03	-1,2785E-03
706,36	-6,4195E-04
706,70	2,0525E-03
707,04	2,5457E-04
707,37	-7,6769E-04
707,71	-5,1475E-04
708,04	4,9294E-03
708,38	4,0048E-03
708,71	-3,1894E-03
709,05	-1,9492E-03
709,39	2,8666E-03
709,72	-2,6083E-03
710,06	1,3141E-03
710,39	4,7560E-03
710,73	5,2831E-04
711,06	1,7141E-03
711,40	-1,4481E-03
711,73	-2,7821E-03
712,07	6,5993E-04
712,40	4,5169E-03
712,74	1,0664E-03
713,07	1,2023E-03
713,41	2,9412E-03
713,74	3,0645E-03
714,08	-2,2840E-03
714,41	3,5041E-03
714,75	-5,3744E-04
715,08	-2,1356E-03
715,42	3,2382E-03
715,75	2,9977E-03
716,08	3,9441E-03
716,42	2,0288E-03
716,75	-3,4202E-03
717,09	-2,5983E-03
717,42	2,3387E-03
717,76	-3,1510E-03
718,09	1,3778E-04
718,43	2,7564E-03
718,76	-4,3105E-03
719,09	3,6198E-03
719,43	2,2095E-03
719,76	1,8027E-03
720,10	-1,2569E-03
720,43	5,5556E-03
720,76	1,3993E-03
721,10	4,8724E-03
721,43	4,0671E-03
721,76	2,8486E-03
722,10	3,1137E-03
722,43	6,2271E-03
722,77	0,0000E00
723,10	3,4184E-03
723,43	-8,5405E-04
723,77	-3,7143E-03
724,10	1,4234E-03
724,43	1,8700E-03
724,77	-4,4710E-03
725,10	1,4414E-03
725,43	1,2994E-03
725,77	-1,4484E-03
726,10	-6,0152E-03
726,43	1,8871E-03
726,77	-1,9233E-03
727,10	-1,1788E-03
727,43	4,3789E-04
727,77	-7,6578E-03
728,10	4,7293E-03
728,43	-2,0743E-03
728,76	-2,5332E-03
729,10	7,4302E-04
729,43	-7,4371E-04
729,76	-2,7160E-03
730,09	2,4169E-03
730,43	9,3229E-03
730,76	4,3785E-03
731,09	-1,5010E-03
731,42	-5,0260E-03
731,76	-3,6335E-03
732,09	1,0668E-03
732,42	3,1904E-03
732,75	1,9878E-03
733,09	3,0961E-03
733,42	2,6465E-03
733,75	-1,2359E-03
734,08	1,7205E-03
734,41	-9,3577E-04
734,75	1,5514E-04
735,08	-1,2577E-03
735,41	-1,8773E-03
735,74	-7,4633E-03
736,07	-7,4798E-03
736,41	-1,2731E-03
736,74	5,4489E-03
737,07	3,1905E-03
737,40	-3,2024E-03
737,73	3,2131E-03
738,06	-1,6107E-03
738,40	-2,2479E-03
738,73	-1,9329E-03
739,06	-5,5190E-03
739,39	4,7675E-03
739,72	2,3281E-03
740,05	1,8079E-03
740,38	-2,7977E-03
740,72	1,6546E-03
741,05	-3,5007E-03
741,38	-1,6602E-04
741,71	1,8560E-03
742,04	-4,5518E-03
742,37	4,7201E-03
742,70	1,0103E-03
743,03	-1,6890E-04
743,36	3,0750E-03
743,69	1,1940E-03
744,02	1,3717E-03
744,36	1,2098E-03
744,69	3,1173E-03
745,02	1,2185E-03
745,35	1,9203E-03
745,68	-1,0475E-03
746,01	4,5357E-03
746,34	-1,4077E-03
746,67	3,7424E-03
747,00	-1,2362E-03
747,33	-3,2216E-03
747,66	-1,4307E-03
747,99	-2,3194E-03
748,32	-3,5914E-03
748,65	-7,8051E-03
748,98	-3,9713E-03
749,31	-5,8290E-03
749,64	-2,9345E-03
749,97	-7,3949E-04
750,30	1,1108E-03
750,63	-7,3658E-04
750,96	-1,8488E-03
751,29	-5,5616E-04
751,62	0,0000E00
751,95	-5,2842E-03
752,28	-1,8710E-03
752,61	1,1345E-03
752,94	-1,5161E-03
753,27	3,0442E-03
753,60	4,8106E-03
753,92	2,0998E-03
754,25	7,3252E-03
754,58	-1,5348E-03
754,91	-2,1477E-03
755,24	-2,5240E-03
755,57	1,7532E-03
755,90	-1,9589E-04
756,23	-9,8270E-04
756,56	-2,3415E-03
756,89	3,9530E-04
757,22	-4,7616E-03
757,54	3,7960E-03
757,87	-7,8756E-03
758,20	3,6278E-03
758,53	-1,0070E-03
758,86	2,8330E-03
759,19	1,0149E-03
759,52	-2,0138E-04
759,84	3,8945E-03
760,17	6,1332E-04
760,50	1,2372E-03
760,83	1,8753E-03
761,16	7,4736E-03
761,49	-4,8092E-03
761,81	-1,0548E-03
762,14	-1,9241E-03
762,47	-2,9623E-03
762,80	2,5284E-03
763,13	4,6583E-03
763,45	-1,4989E-03
763,78	8,6574E-04
764,11	-2,3601E-03
764,44	-1,7287E-03
764,77	-1,2895E-03
765,09	-1,7494E-03
765,42	-3,2821E-03
765,75	-2,2029E-03
766,08	2,1989E-04
766,40	2,2240E-04
766,73	0,0000E00
767,06	2,6503E-03
767,39	-5,8612E-03
767,71	6,7450E-04
768,04	-4,5316E-04
768,37	1,3574E-03
768,70	7,2678E-03
769,02	0,0000E00
769,35	3,6596E-03
769,68	9,8886E-03
770,00	-3,4330E-03
770,33	4,9206E-03
770,66	-3,2699E-03
770,99	2,0780E-03
771,31	6,3567E-03
771,64	1,4037E-03
771,97	-3,5609E-03
772,29	0,0000E00
772,62	-7,1916E-03
772,95	5,2598E-03
773,27	-7,9596E-03
773,60	1,1966E-03
773,93	5,9498E-03
774,25	-1,6900E-03
774,58	1,6990E-03
774,90	-1,4482E-03
775,23	-3,6659E-03
775,56	-6,1499E-03
775,88	2,4504E-04
776,21	-2,4757E-04
776,54	3,7222E-03
776,86	-2,9693E-03
777,19	-4,9986E-04
777,51	-1,2574E-03
777,84	-3,0206E-03
778,16	-2,8050E-03
778,49	-9,3909E-03
778,82	-5,0941E-04
779,14	-1,5327E-03
779,47	0,0000E00
779,79	-4,1046E-03
780,12	3,6385E-03
780,44	1,2894E-03
780,77	5,2100E-04
781,10	4,7150E-03
781,42	5,2981E-03
781,75	-6,3153E-03
782,07	-3,9491E-03
782,40	5,3432E-04
782,72	-1,0615E-02
783,05	-4,0168E-03
783,37	1,2610E-02
783,70	6,7242E-03
784,02	1,0888E-03
784,35	-5,4388E-04
784,67	-1,3759E-03
785,00	4,0888E-03
785,32	-1,1115E-03
785,65	2,7775E-04
785,97	5,4891E-04
786,30	1,0431E-02
786,62	5,5749E-04
786,94	-3,1228E-03
787,27	5,6300E-03
787,59	1,1278E-03
787,92	-8,0217E-03
788,24	1,4111E-02
788,57	3,1007E-03
788,89	-1,0003E-02
789,22	-3,6831E-03
789,54	-3,1370E-03
789,86	-6,2220E-03
790,19	1,7056E-03
790,51	0,0000E00
790,84	-5,1278E-03
791,16	6,5558E-03
791,48	3,4240E-03
791,81	5,4020E-03
792,13	2,5744E-03
792,45	2,2983E-03
792,78	5,4228E-03
793,10	-5,7028E-04
793,43	2,2709E-03
793,75	3,1355E-03
794,07	1,0382E-02
794,40	5,7324E-04
794,72	-2,5522E-03
795,04	-4,8486E-03
795,37	-7,6794E-03
795,69	-8,6147E-04
796,01	-8,5401E-04
796,34	-5,1704E-03
796,66	-1,4115E-03
796,98	-4,2033E-03
797,30	2,8309E-03
797,63	-7,0372E-03
797,95	-3,9645E-03
798,27	1,2817E-02
798,60	-6,2487E-03
798,92	-9,3648E-03
799,24	-2,5192E-03
799,56	7,0222E-03
799,89	2,8402E-03
800,21	-5,9088E-03
800,53	2,8426E-04
800,85	5,9193E-03
801,18	1,6943E-03
801,50	-1,1241E-03
801,82	4,5253E-03
802,14	3,0963E-03
802,47	6,2023E-03
802,79	-2,8327E-04
803,11	1,6946E-03
803,43	3,3714E-03
803,75	-3,6694E-03
804,08	5,1096E-03
804,40	-5,9456E-03
804,72	3,4101E-03
805,04	1,6969E-03
805,36	1,4308E-03
805,69	3,9607E-03
806,01	8,2786E-03
806,33	-2,8627E-03
806,65	8,3726E-03
806,97	-4,0540E-03
807,29	7,5301E-03
807,62	1,1776E-02
807,94	2,0057E-03
808,26	-6,1053E-03
808,58	5,7933E-04
808,90	-9,0212E-03
809,22	3,5321E-03
809,54	1,0777E-02
809,86	3,5104E-03
810,18	-5,5755E-03
810,51	4,0883E-03
810,83	2,6521E-03
811,15	-1,4961E-03
811,47	-3,2500E-03
811,79	8,8753E-04
812,11	9,1838E-03
812,43	-2,1972E-02
812,75	-6,3266E-03
813,07	-1,0961E-02
813,39	-1,2142E-03
813,71	-8,8170E-03
814,03	-8,4595E-03
814,35	-8,4660E-03
814,67	-6,3272E-03
814,99	-3,0505E-03
815,31	-3,3532E-03
815,64	-6,1616E-03
815,96	4,2664E-03
816,28	1,8579E-03
816,60	1,1696E-02
816,92	9,2982E-04
817,24	1,3721E-02
817,56	1,0531E-02
817,88	-8,8708E-03
818,19	-3,1200E-03
818,51	5,3767E-03
818,83	-5,3090E-03
819,15	-1,4564E-02
819,47	-1,5639E-02
819,79	-8,2628E-03
820,11	-8,0298E-03
820,43	-3,1997E-04
820,75	2,5469E-03
821,07	-3,2064E-03
821,39	1,1045E-02
821,71	3,5893E-03
822,03	1,5037E-02
822,35	-5,5776E-03
822,67	-5,5532E-03
822,99	1,3342E-03
823,31	2,3086E-03
823,62	3,3375E-04
823,94	9,6098E-03
824,26	1,1084E-02
824,58	-1,6829E-03
824,90	-8,1212E-03
825,22	-1,1811E-02
825,54	2,7336E-03
825,86	1,1916E-02
826,17	8,8473E-03
826,49	0,0000E00
826,81	1,3708E-03
827,13	8,6431E-03
827,45	1,0640E-02
827,77	-4,1413E-03
828,08	1,7465E-03
828,40	-5,9514E-03
828,72	1,1549E-02
829,04	-6,6512E-03
829,36	2,8688E-03
829,67	-4,9591E-03
829,99	-2,8793E-03
830,31	-1,7944E-03
830,63	-1,8165E-03
830,95	1,0847E-03
831,26	3,6554E-03
831,58	2,8978E-03
831,90	2,5309E-03
832,22	1,4596E-03
832,53	-6,6906E-03
832,85	2,6243E-03
833,17	-8,1891E-03
833,49	-8,9839E-03
833,80	-1,5012E-03
834,12	4,1559E-03
834,44	-4,1742E-03
834,76	-8,7624E-03
835,07	-2,6784E-03
835,39	6,9528E-03
835,71	-1,8967E-03
836,02	-7,2240E-03
836,34	-6,4875E-03
836,66	5,3884E-03
836,97	1,9207E-03
837,29	5,0152E-03
837,61	3,4939E-03
837,93	-1,9855E-03
838,24	1,5647E-03
838,56	8,5597E-03
838,88	2,0360E-02
839,19	3,5901E-03
839,51	7,2133E-03
839,82	7,6135E-03
840,14	2,8189E-03
840,46	9,2093E-03
840,77	-1,0147E-02
841,09	4,0450E-04
841,41	6,1022E-03
841,72	-6,9062E-03
842,04	-9,7863E-03
842,35	-9,3538E-03
842,67	-1,2338E-03
842,99	-4,1181E-04
843,30	-1,5713E-02
843,62	4,5877E-03
843,93	6,7587E-03
844,25	-3,3227E-03
844,56	2,9663E-03
844,88	-1,1093E-02
845,20	-4,2366E-04
845,51	-3,8242E-03
845,83	1,2873E-03
846,14	0,0000E00
846,46	6,8053E-03
846,77	-4,2655E-04
847,09	7,4960E-03
847,40	1,7466E-02
847,72	8,9067E-03
848,03	-6,1491E-03
848,35	-1,7765E-03
848,66	-6,7139E-03
848,98	4,4740E-04
849,29	1,3424E-03
849,61	-7,2178E-03
849,92	8,5611E-03
850,24	-8,1642E-03
850,55	1,8272E-03
850,87	2,2907E-03
851,18	-4,5710E-04
851,50	1,7631E-02
851,81	-1,5580E-02
852,12	-8,7743E-03
852,44	-3,2360E-03
852,75	-5,2102E-03
853,07	8,4462E-03
853,38	-3,8185E-03
853,70	-6,6062E-03
854,01	-7,1203E-03
854,32	2,4074E-03
854,64	-6,3302E-03
854,95	-1,4521E-02
855,27	-1,4589E-03
855,58	-1,9489E-03
855,89	7,7357E-03
856,21	2,9595E-03
856,52	0,0000E00
856,83	6,4779E-03
857,15	8,9563E-03
857,46	-3,4790E-03
857,77	-2,6598E-02
858,09	5,0355E-03
858,40	4,0381E-03
858,71	1,1530E-02
859,03	-1,0179E-03
859,34	3,0441E-02
859,65	-1,1635E-02
859,97	-1,6366E-02
860,28	-1,9710E-02
860,59	-1,5548E-03
860,91	-7,3641E-03
861,22	-5,7453E-03
861,53	-7,3322E-03
861,84	1,3198E-02
862,16	1,7107E-02
862,47	2,0893E-02
862,78	1,8800E-02
863,10	6,9624E-03
863,41	1,7924E-02
863,72	-1,0911E-03
864,03	1,2421E-02
864,35	-1,7946E-02
864,66	-1,1056E-03
864,97	1,4151E-02
865,28	-4,4476E-03
865,59	-1,6241E-02
865,91	-6,2082E-03
866,22	-4,4577E-03
866,53	-3,9172E-03
866,84	1,6524E-02
867,15	-4,0136E-03
867,47	-1,0315E-02
867,78	-1,1469E-03
868,09	8,0099E-03
868,40	5,7544E-04
868,71	-9,3138E-03
869,02	3,5200E-03
869,34	1,1832E-02
869,65	8,8923E-03
869,96	-2,3573E-03
870,27	3,5976E-03
870,58	-2,1415E-02
870,89	6,0571E-04
871,20	-6,0382E-04
871,52	1,5948E-02
871,83	-2,0693E-02
872,14	-3,6799E-03
872,45	-1,1079E-02
872,76	2,3791E-02
873,07	1,6886E-02
873,38	9,4367E-03
873,69	-2,6745E-02
874,00	-1,2758E-03
874,31	-2,0184E-02
874,62	-1,6407E-02
874,94	-2,2553E-02
875,25	1,2778E-03
875,56	9,8262E-03
875,87	8,3484E-03
876,18	1,1868E-02
876,49	9,9171E-03
876,80	-7,2164E-03
877,11	-3,9024E-03
877,42	-1,3127E-03
877,73	-1,3227E-03
878,04	-1,1496E-02
878,35	-1,0088E-02
878,66	-1,2618E-02
878,97	-6,7233E-03
879,28	6,0749E-03
879,59	-1,4306E-02
879,90	6,8288E-04
880,21	1,1501E-02
880,52	2,1664E-02
880,83	-1,9078E-02
881,14	1,4977E-02
881,45	-1,8422E-02
881,76	2,1638E-02
882,07	-1,5589E-02
882,37	-3,4337E-03
882,68	-7,4290E-03
882,99	4,7490E-03
883,30	-3,0800E-02
883,61	1,6637E-02
883,92	2,7022E-03
884,23	9,5514E-03
884,54	-8,7281E-03
884,85	2,6590E-02
885,16	9,5395E-03
885,47	1,5699E-02
885,77	-1,3744E-03
886,08	1,8597E-02
886,39	2,0621E-03
886,70	4,7977E-03
887,01	1,1666E-02
887,32	-1,3600E-02
887,63	4,8690E-03
887,93	-4,7619E-03
888,24	-1,6479E-02
888,55	-2,7440E-03
888,86	-6,8759E-04
889,17	-1,3186E-02
889,47	-2,0599E-02
889,78	-2,0682E-03
890,09	-8,2319E-03
890,40	1,7248E-02
890,71	-1,5049E-02
891,01	-9,0924E-03
891,32	-3,4793E-02
891,63	-1,0937E-02
891,94	6,9190E-03
892,25	5,4387E-03
892,55	1,9239E-02
892,86	2,0651E-03
893,17	-1,3844E-02
893,48	1,3751E-03
893,78	2,0552E-03
894,09	-3,4487E-03
894,40	3,0234E-02
894,70	8,3948E-03
895,01	-1,0378E-02
895,32	1,3856E-02
895,63	-1,1090E-02
895,93	-9,7895E-03
896,24	-2,7826E-03
896,55	1,2562E-02
896,85	9,1190E-03
897,16	1,7575E-02
897,47	1,7330E-02
897,77	-1,5218E-02
898,08	2,0989E-03
898,39	7,0258E-04
898,69	-2,1907E-02
899,00	-4,2836E-03
899,31	-1,1373E-02
899,61	1,4326E-03
899,92	-7,7809E-03
900,23	9,2100E-03
900,53	2,8629E-03
900,84	-3,1723E-02
901,14	7,1693E-04
901,45	0,0000E00
901,76	1,2026E-02
902,06	-1,8148E-02
902,37	-1,7370E-02
902,67	-1,8262E-02
902,98	2,4004E-02
903,29	2,0319E-02
903,59	-7,2539E-03
903,90	-3,7060E-03
904,20	-5,1836E-03
904,51	-1,0201E-02
904,81	6,6657E-03
905,12	5,8460E-03
905,42	-1,2786E-02
905,73	-7,5849E-03
906,03	-5,9374E-03
906,34	3,7251E-03
906,64	4,5168E-03
906,95	6,0106E-03
907,25	1,5346E-02
907,56	2,7750E-02
907,86	-1,6190E-02
908,17	6,9904E-03
908,47	2,7371E-02
908,78	-4,6541E-03
909,08	2,5873E-02
909,39	1,8109E-02
909,69	-1,5201E-02
910,00	-1,8394E-02
910,30	1,4647E-02
910,61	-1,7519E-02
910,91	-9,6143E-03
911,21	1,6190E-02
911,52	-1,2458E-02
911,82	-1,6495E-03
912,13	-8,9130E-03
912,43	4,0396E-02
912,74	-2,4268E-02
913,04	1,4161E-02
913,34	-6,7417E-03
913,65	8,2889E-04
913,95	1,2949E-02
914,25	-1,5377E-02
914,56	-2,5764E-03
914,86	1,3809E-02
915,17	1,5750E-02
915,47	-2,6058E-03
915,77	9,8269E-03
916,08	-1,7553E-02
916,38	1,2965E-02
916,68	-1,0597E-02
916,99	-2,3391E-02
917,29	-1,7155E-02
917,59	8,1638E-03
917,90	2,7425E-03
918,20	2,4383E-02
918,50	8,9380E-03
918,80	4,5573E-03
919,11	7,3290E-03
919,41	-2,5083E-02
919,71	-1,7471E-02
920,02	-2,7869E-02
920,32	-1,6946E-02
920,62	2,8663E-02
920,92	1,4323E-02
921,23	9,6096E-04
921,53	-1,8247E-02
921,83	1,8310E-02
922,13	-3,0650E-02
922,44	2,9256E-03
922,74	1,3776E-02
923,04	2,8818E-02
923,34	1,9802E-03
923,64	-4,9347E-03
923,95	3,1217E-02
924,25	2,0218E-02
924,55	1,4444E-02
924,85	-3,0915E-02
925,15	2,1718E-02
925,46	1,3340E-02
925,76	4,1570E-03
926,06	-3,1712E-02
926,36	-2,4505E-02
926,66	1,0614E-03
926,96	-4,2503E-03
927,26	-1,8366E-02
927,57	1,8365E-02
927,87	3,8372E-02
928,17	8,7366E-03
928,47	-2,6636E-02
928,77	2,6424E-02
929,07	-1,6803E-02
929,37	1,5554E-02
929,67	1,8040E-02
929,98	1,3500E-02
930,28	-1,8087E-02
930,58	1,6042E-02
930,88	-2,1090E-02
931,18	2,5735E-02
931,48	-9,3190E-03
931,78	-4,0151E-02
932,08	5,9913E-03
932,38	8,4787E-03
932,68	-5,9151E-02
932,98	1,5797E-02
933,28	-3,6393E-03
933,58	2,4410E-02
933,88	-5,5537E-02
934,18	-2,5064E-02
934,48	2,7372E-02
934,78	6,9193E-02
935,08	2,3772E-02
935,38	-1,3635E-02
935,68	8,8368E-03
935,98	-2,1515E-02
936,28	-2,8636E-02
936,58	1,1690E-02
936,88	3,7613E-02
937,18	4,5549E-02
937,48	3,9933E-03
937,78	-1,1935E-02
938,08	-1,3470E-02
938,38	-3,4822E-02
938,68	-2,0578E-02
938,98	-2,4987E-02
939,28	-1,2381E-02
939,57	-2,7930E-02
939,87	-5,5460E-03
940,17	-5,3653E-02
940,47	2,7117E-02
940,77	-6,3925E-02
941,07	4,2768E-03
941,37	1,8518E-02
941,67	-1,0038E-02
941,97	1,3286E-02
942,26	2,2352E-02
942,56	-2,9899E-03
942,86	-4,2131E-02
943,16	-8,8534E-03
943,46	-1,0656E-02
943,76	-3,4588E-02
944,06	2,7409E-02
944,35	-4,6306E-03
944,65	-1,7214E-02
944,95	6,1327E-03
945,25	-5,8812E-02
945,55	4,0401E-02
945,84	2,7238E-02
946,14	1,2793E-02
946,44	6,0622E-02
946,74	-5,8432E-02
947,03	-9,9861E-03
947,33	5,5566E-02
947,63	4,9028E-03
947,93	-2,8688E-02
948,23	-3,7826E-02
948,52	-1,5190E-02
948,82	5,1629E-02
949,12	-4,2910E-02
949,41	2,7726E-02
949,71	1,7373E-02
950,01	1,9280E-02
950,31	-3,7324E-02
950,60	3,5124E-02
950,90	2,8425E-02
951,20	4,1208E-02
951,49	-1,2808E-02
951,79	-2,6361E-02
952,09	-9,1267E-03
952,38	5,7546E-03
952,68	-1,7139E-02
952,98	4,0068E-02
953,27	4,8320E-02
953,57	1,6835E-02
953,87	-3,1472E-02
954,16	7,6138E-03
954,46	-3,7223E-02
954,76	-3,7961E-02
955,05	4,3363E-02
955,35	-2,3321E-02
955,64	5,6625E-02
955,94	-3,8154E-02
956,24	-2,2032E-02
956,53	-3,6261E-02
956,83	2,4527E-02
957,12	4,6676E-02
957,42	8,2997E-03
957,72	2,0783E-03
958,01	7,5448E-02
958,31	-4,0805E-02
958,60	1,7096E-02
958,90	2,3501E-02
959,19	-1,7359E-02
959,49	3,6903E-02
959,78	-6,7468E-03
960,08	-5,5063E-02
960,37	-4,7418E-02
960,67	-7,4045E-02
960,96	2,2345E-03
961,26	-3,2134E-02
961,55	1,6380E-02
961,85	-5,0095E-02
962,14	-3,2483E-02
962,44	3,7454E-02
962,73	3,9127E-02
963,03	1,4429E-02
963,32	-8,1618E-02
963,62	1,1644E-01
963,91	1,1172E-01
964,21	-3,9199E-02
964,50	3,7264E-02
964,80	-4,9719E-03
965,09	-8,6817E-02
965,38	2,3164E-02
965,68	-2,0467E-02
965,97	4,2636E-02
966,27	4,6438E-02
966,56	-4,6907E-02
966,85	-3,1541E-02
967,15	-4,7380E-02
967,44	6,5575E-02
967,74	-1,3377E-02
968,03	-6,7579E-02
968,32	-1,3642E-02
968,62	9,6542E-02
968,91	1,0461E-01
969,20	4,9227E-02
969,50	4,1838E-02
969,79	1,3995E-02
970,08	1,1480E-02
970,38	-5,4744E-02
970,67	-1,1272E-01
970,96	1,1651E-02
971,26	6,3644E-02
971,55	1,4631E-02
971,84	-3,0048E-02
972,13	-2,6649E-02
972,43	1,4630E-01
972,72	-2,7935E-02
973,01	1,0700E-01
973,31	4,6764E-02
973,60	2,8265E-02
973,89	1,9224E-02
974,18	-4,5403E-02
974,48	0,0000E00
974,77	1,3276E-02
975,06	3,2109E-02
975,35	4,9111E-02
975,64	5,6828E-02
975,94	-8,7550E-02
976,23	-8,1606E-02
976,52	-1,2904E-01
976,81	0,0000E00
977,10	-1,7191E-02
977,40	1,4579E-01
977,69	3,8945E-02
977,98	8,7470E-02
978,27	1,1061E-01
978,56	-6,1909E-02
978,86	0,0000E00
979,15	-1,6833E-01
979,44	-5,2897E-02
979,73	-4,9019E-02
980,02	5,6837E-02
980,31	-6,9091E-02
980,60	5,6999E-02
980,89	2,4096E-02
981,19	6,6159E-02
981,48	6,9866E-02
981,77	8,0881E-03
982,06	1,2580E-01
982,35	5,7107E-02
982,64	1,2393E-02
982,93	-4,3755E-02
983,22	-5,7214E-02
983,51	-6,8508E-02
983,80	1,2148E-01
984,09	2,1324E-01
984,38	2,1221E-02
984,67	-2,5678E-02
984,96	-5,0664E-02
985,25	-2,2508E-02
985,55	1,6491E-01
985,84	-1,5109E-01
986,13	4,0162E-02
986,42	-3,6860E-02
986,71	-1,6281E-01
987,00	-6,0085E-02
987,29	1,4327E-01
987,58	5,6431E-02
987,86	-1,9107E-02
988,15	0,0000E00
988,44	-1,7516E-01
988,73	-1,0835E-01
989,02	0,0000E00
989,31	1,2777E-01
989,60	9,2055E-02
989,89	1,8037E-01
990,18	2,0029E-01
990,47	-6,4281E-02
990,76	4,5657E-02
991,05	-2,1285E-01
991,34	1,9914E-01
991,63	-4,3958E-02
991,92	2,8609E-02
992,20	6,5768E-02
992,49	6,7012E-02
992,78	4,9200E-02
993,07	-3,9681E-02
993,36	1,6233E-01
993,65	1,4712E-01
993,94	-6,0484E-03
994,22	1,9188E-01
994,51	2,3543E-02
994,80	1,3970E-01
995,09	1,3664E-01
995,38	2,2870E-01
995,67	1,8765E-02
995,95	4,1101E-01
996,24	2,2708E-01
996,53	-9,9213E-02
996,82	-2,9517E-01
997,11	-4,8499E-02
997,39	2,0792E-01
997,68	-1,3188E-01
997,97	6,6934E-02
998,26	1,0088E-01
998,54	-1,2304E-01
998,83	-4,1313E-02
999,12	-1,0550E-01
999,41	2,0415E-02
999,69	-2,3963E-01
999,98	-1,2964E-01
1000,27	-7,8735E-02
1000,56	-1,4691E-01
1000,84	-2,2115E-02
1001,13	2,3231E-02
1001,42	3,1089E-01
1001,70	-1,1803E-01
1001,99	1,1102E-01
1002,28	-1,6040E-02
1002,56	-9,2899E-02
1002,85	-2,8454E-01
1003,14	3,8433E-02
1003,42	-3,3002E-02
1003,71	-1,1506E-01
1004,00	2,0291E-01
1004,28	-8,4127E-02
1004,57	-8,0644E-03
1004,86	1,4010E-01
1005,14	-4,3350E-02
1005,43	1,9568E-01
1005,72	-1,7480E-01
1006,00	1,7510E-02
1006,29	-3,0099E-01
1006,57	-8,2034E-02
1006,86	1,1494E-01
1007,15	-2,5990E-01
1007,43	-1,4502E-01
1007,72	-1,0171E-01
1008,00	-2,9111E-02
1008,29	-1,9620E-02
1008,57	-2,8597E-01
1008,86	4,2244E-02
1009,14	-5,2395E-02
1009,43	-6,4978E-02
1009,71	6,3915E-02
1010,00	-1,3832E-01
1010,29	1,7927E-01
1010,57	2,4540E-01
1010,86	4,3272E-01
1011,14	-2,4810E-01
1011,43	7,7419E-02
1011,71	-4,6144E-02
1011,99	-3,9912E-01
1012,28	-3,7269E-01
1012,56	-1,2445E-01
1012,85	-2,4456E-01
1013,13	-2,0568E-01
1013,42	-2,1516E-01
1013,70	5,7654E-01
1013,99	7,9383E-02
1014,27	9,0927E-02
1014,56	8,3540E-01
1014,84	4,7786E-01
1015,12	4,5611E-01
1015,41	2,1577E-01
1015,69	4,7538E-01
1015,98	3,8378E-01
1016,26	5,3742E-01
1016,54	4,1177E-01
1016,83	-1,3255E-01
1017,11	3,7589E-01
1017,39	4,8271E-01
1017,68	2,0072E-01
1017,96	-3,4044E-01
1018,25	-6,5267E-01
1018,53	-1,8128E-01
1018,81	1,3588E-01
1019,10	7,8930E-02
1019,38	5,8227E-01
1019,66	-5,1645E-01
1019,94	-7,3323E-01
1020,23	4,2225E-01
1020,51	1,5922E-01
1020,79	-4,1390E-01
1021,08	1,5276E-01
1021,36	-2,1999E-01
1021,64	2,2654E-01
1021,93	1,9114E-01
1022,21	-2,5091E-01
1022,49	-2,5091E-01
>>>>>End Processed Spectral Data<<<<<
