SpectraSuite Data File
++++++++++++++++++++++++++++++++++++
Date: Wed Mar 01 11:50:26 EET 2017
User: mkilpela
Dark Spectrum Present: Yes
Reference Spectrum Present: No
Number of Sampled Component Spectra: 1
Spectrometers: JAZA2845
Integration Time (usec): 89280 (JAZA2845)
Spectra Averaged: 1 (JAZA2845)
Boxcar Smoothing: 0 (JAZA2845)
Correct for Electrical Dark: No (JAZA2845)
Strobe/Lamp Enabled: No (JAZA2845)
Correct for Detector Non-linearity: No (JAZA2845)
Correct for Stray Light: No (JAZA2845)
Number of Pixels in Processed Spectrum: 2048
>>>>>Begin Processed Spectral Data<<<<<
340,21	0,0000E00
340,58	0,0000E00
340,96	0,0000E00
341,33	0,0000E00
341,70	-0,0000E00
342,07	0,0000E00
342,45	-0,0000E00
342,82	0,0000E00
343,19	-0,0000E00
343,57	0,0000E00
343,94	-0,0000E00
344,31	0,0000E00
344,68	0,0000E00
345,06	0,0000E00
345,43	-0,0000E00
345,80	-0,0000E00
346,18	-0,0000E00
346,55	0,0000E00
346,92	-0,0000E00
347,29	0,0000E00
347,67	0,0000E00
348,04	0,0000E00
348,41	0,0000E00
348,78	0,0000E00
349,16	0,0000E00
349,53	0,0000E00
349,90	0,0000E00
350,27	-4,7537E-02
350,64	0,0000E00
351,02	7,7957E-03
351,39	1,1678E-02
351,76	1,0189E-02
352,13	2,0180E-03
352,51	-4,8162E-03
352,88	1,7672E-02
353,25	-1,5369E-02
353,62	3,6379E-02
353,99	-1,6278E-02
354,37	-3,3012E-02
354,74	-6,6938E-03
355,11	0,0000E00
355,48	1,5773E-02
355,85	1,6733E-03
356,23	9,0935E-03
356,60	-3,0841E-03
356,97	6,8432E-04
357,34	3,0805E-03
357,71	2,1058E-02
358,08	2,0503E-02
358,46	-1,7205E-02
358,83	-6,8309E-04
359,20	2,3358E-02
359,57	1,1631E-02
359,94	7,5580E-03
360,31	3,2659E-02
360,69	1,0720E-02
361,06	-1,0644E-02
361,43	0,0000E00
361,80	-3,3272E-02
362,17	-1,0824E-02
362,54	8,2132E-03
362,91	7,1222E-04
363,29	-1,6011E-03
363,66	1,7964E-03
364,03	-1,2204E-02
364,40	-3,6134E-03
364,77	8,9000E-03
365,14	-3,6815E-03
365,51	-2,2033E-03
365,88	1,2596E-02
366,26	1,6557E-03
366,63	8,6797E-03
367,00	2,3504E-02
367,37	4,0158E-03
367,74	-7,0294E-04
368,11	-8,7942E-03
368,48	6,9276E-03
368,85	2,2457E-03
369,22	2,5058E-03
369,59	0,0000E00
369,97	2,3027E-03
370,34	-1,0171E-03
370,71	7,8353E-04
371,08	1,9246E-02
371,45	-7,1880E-04
371,82	-5,1019E-03
372,19	1,3414E-03
372,56	1,7001E-02
372,93	1,2489E-02
373,30	1,4307E-02
373,67	4,5132E-03
374,04	4,7345E-03
374,41	1,6292E-02
374,78	-8,0824E-03
375,15	-2,6346E-03
375,52	2,4862E-03
375,89	2,7469E-03
376,26	3,7147E-03
376,63	2,3320E-03
377,00	-2,2083E-03
377,38	2,1491E-02
377,75	-3,4546E-02
378,12	-5,3755E-03
378,49	-2,3514E-03
378,86	1,9178E-02
379,23	-1,5119E-02
379,60	8,2567E-04
379,97	8,8212E-03
380,34	4,9804E-03
380,71	8,2707E-04
381,08	-9,4813E-03
381,45	5,1831E-03
381,82	-6,0375E-03
382,19	8,3075E-03
382,55	8,0143E-04
382,92	-8,7454E-04
383,29	-1,9661E-03
383,66	1,0933E-02
384,03	7,0540E-03
384,40	1,0937E-02
384,77	-5,5519E-03
385,14	9,3790E-03
385,51	1,3164E-02
385,88	1,4612E-02
386,25	1,1978E-02
386,62	6,2550E-04
386,99	3,0290E-03
387,36	5,0234E-03
387,73	8,8433E-03
388,10	-8,5002E-03
388,47	8,9841E-03
388,84	-2,2671E-03
389,21	-1,0224E-03
389,58	7,7307E-03
389,94	5,3660E-03
390,31	7,2601E-03
390,68	9,6232E-03
391,05	1,1844E-02
391,42	1,7250E-03
391,79	6,9212E-03
392,16	-4,9540E-03
392,53	0,0000E00
392,90	2,6155E-04
393,27	4,8006E-03
393,63	1,0649E-02
394,00	1,3506E-02
394,37	4,5348E-03
394,74	1,6151E-03
395,11	-2,2337E-03
395,48	-2,2174E-03
395,85	1,3895E-03
396,22	1,6161E-03
396,58	2,9765E-04
396,95	-2,6416E-03
397,32	-3,1797E-04
397,69	2,4353E-03
398,06	9,4423E-03
398,43	5,2354E-03
398,80	1,1796E-02
399,16	7,7034E-03
399,53	1,3508E-02
399,90	8,4182E-03
400,27	9,4574E-03
400,64	4,0214E-03
401,01	1,1402E-02
401,37	1,1948E-02
401,74	8,0945E-03
402,11	1,9820E-03
402,48	6,9521E-03
402,85	8,3618E-03
403,22	3,2350E-03
403,58	3,8645E-03
403,95	7,4298E-03
404,32	-2,3979E-04
404,69	2,4693E-03
405,06	3,3539E-03
405,42	6,3196E-03
405,79	5,3232E-03
406,16	-2,6888E-03
406,53	5,5557E-03
406,89	-1,9144E-03
407,26	2,1361E-03
407,63	8,0457E-03
408,00	1,8794E-03
408,37	1,9802E-03
408,73	8,3651E-03
409,10	9,6127E-03
409,47	6,9946E-03
409,84	9,7840E-03
410,20	7,1546E-03
410,57	5,0737E-03
410,94	3,0582E-03
411,31	1,3028E-02
411,67	1,1821E-02
412,04	1,1037E-02
412,41	1,5859E-02
412,77	1,4057E-02
413,14	8,4627E-03
413,51	8,5029E-03
413,88	7,9442E-03
414,24	8,3016E-03
414,61	8,7374E-03
414,98	6,5182E-03
415,34	6,3095E-03
415,71	1,1494E-02
416,08	7,8192E-03
416,45	1,8405E-02
416,81	1,7071E-02
417,18	2,0456E-02
417,55	1,8053E-02
417,91	2,1223E-02
418,28	1,6912E-02
418,65	2,9401E-02
419,01	2,4509E-02
419,38	2,3906E-02
419,75	3,3803E-02
420,11	3,4004E-02
420,48	4,1011E-02
420,85	4,1152E-02
421,21	4,4646E-02
421,58	5,3244E-02
421,95	5,1050E-02
422,31	7,1706E-02
422,68	6,5037E-02
423,05	7,0664E-02
423,41	7,6621E-02
423,78	8,5630E-02
424,15	8,4221E-02
424,51	1,0236E-01
424,88	1,0699E-01
425,24	1,0733E-01
425,61	1,3908E-01
425,98	1,3584E-01
426,34	1,5337E-01
426,71	1,6564E-01
427,07	1,6906E-01
427,44	1,8069E-01
427,81	1,8871E-01
428,17	2,1538E-01
428,54	2,2176E-01
428,90	2,2367E-01
429,27	2,6181E-01
429,64	2,6874E-01
430,00	2,8715E-01
430,37	3,2418E-01
430,73	3,4339E-01
431,10	3,4455E-01
431,46	3,7501E-01
431,83	3,9929E-01
432,20	4,4261E-01
432,56	4,6054E-01
432,93	5,0307E-01
433,29	5,5067E-01
433,66	5,9606E-01
434,02	6,2136E-01
434,39	6,8970E-01
434,75	7,3929E-01
435,12	8,6790E-01
435,49	9,1248E-01
435,85	9,6481E-01
436,22	1,0470E00
436,58	1,1010E00
436,95	1,1854E00
437,31	1,2624E00
437,68	1,2971E00
438,04	1,5074E00
438,41	1,5855E00
438,77	1,6499E00
439,14	1,7151E00
439,50	1,9073E00
439,87	1,9272E00
440,23	2,0750E00
440,60	2,1531E00
440,96	2,1669E00
441,33	2,3897E00
441,69	2,3806E00
442,06	2,6503E00
442,42	2,8209E00
442,78	2,8431E00
443,15	3,0332E00
443,51	3,0504E00
443,88	3,1421E00
444,24	3,2372E00
444,61	3,3245E00
444,97	3,4711E00
445,34	3,4753E00
445,70	3,7132E00
446,07	3,6274E00
446,43	3,6385E00
446,79	3,9153E00
447,16	3,7990E00
447,52	3,8548E00
447,89	4,0240E00
448,25	3,9118E00
448,62	3,9633E00
448,98	3,9566E00
449,34	4,1340E00
449,71	3,9674E00
450,07	3,8523E00
450,44	3,8928E00
450,80	3,9689E00
451,16	3,8064E00
451,53	3,7279E00
451,89	3,7272E00
452,25	3,7239E00
452,62	3,6003E00
452,98	3,5564E00
453,35	3,5044E00
453,71	3,4062E00
454,07	3,3153E00
454,44	3,2292E00
454,80	3,1761E00
455,16	2,9881E00
455,53	2,9841E00
455,89	2,8774E00
456,25	2,7635E00
456,62	2,7118E00
456,98	2,5532E00
457,34	2,4791E00
457,71	2,4438E00
458,07	2,3362E00
458,43	2,2142E00
458,80	2,0920E00
459,16	2,0362E00
459,52	1,9486E00
459,89	1,8809E00
460,25	1,8147E00
460,61	1,7222E00
460,98	1,6707E00
461,34	1,6662E00
461,70	1,5695E00
462,07	1,5522E00
462,43	1,5160E00
462,79	1,4336E00
463,15	1,3790E00
463,52	1,3682E00
463,88	1,3282E00
464,24	1,2741E00
464,61	1,2432E00
464,97	1,2355E00
465,33	1,2047E00
465,69	1,1611E00
466,06	1,1003E00
466,42	1,0704E00
466,78	1,0580E00
467,14	9,9818E-01
467,51	9,7149E-01
467,87	9,3400E-01
468,23	9,0623E-01
468,59	8,8542E-01
468,95	8,3344E-01
469,32	7,9489E-01
469,68	7,5761E-01
470,04	7,3662E-01
470,40	7,0623E-01
470,77	6,7338E-01
471,13	6,2176E-01
471,49	6,0864E-01
471,85	5,7916E-01
472,21	5,4925E-01
472,58	5,2883E-01
472,94	4,9105E-01
473,30	4,8789E-01
473,66	4,3643E-01
474,02	4,2196E-01
474,39	3,9695E-01
474,75	3,7688E-01
475,11	3,6121E-01
475,47	3,3634E-01
475,83	3,0796E-01
476,19	3,0096E-01
476,56	2,7134E-01
476,92	2,5953E-01
477,28	2,4343E-01
477,64	2,3290E-01
478,00	2,1454E-01
478,36	1,9945E-01
478,72	1,8555E-01
479,09	1,7120E-01
479,45	1,6721E-01
479,81	1,5592E-01
480,17	1,5000E-01
480,53	1,4071E-01
480,89	1,2866E-01
481,25	1,2222E-01
481,61	1,1030E-01
481,97	1,0730E-01
482,34	1,0209E-01
482,70	9,4531E-02
483,06	8,7903E-02
483,42	8,2388E-02
483,78	7,5779E-02
484,14	7,5609E-02
484,50	7,2634E-02
484,86	6,5752E-02
485,22	6,3566E-02
485,58	5,9078E-02
485,94	5,3838E-02
486,31	4,9172E-02
486,67	4,9859E-02
487,03	4,4303E-02
487,39	4,2997E-02
487,75	3,9008E-02
488,11	3,7843E-02
488,47	3,6131E-02
488,83	3,1533E-02
489,19	2,7608E-02
489,55	2,8387E-02
489,91	2,5039E-02
490,27	2,2347E-02
490,63	1,8701E-02
490,99	1,8486E-02
491,35	1,9589E-02
491,71	1,6562E-02
492,07	1,5774E-02
492,43	1,4972E-02
492,79	1,1660E-02
493,15	1,0614E-02
493,51	1,0733E-02
493,87	9,6634E-03
494,23	8,6090E-03
494,59	7,0888E-03
494,95	4,0709E-03
495,31	5,6388E-03
495,67	4,4321E-03
496,03	3,4766E-03
496,39	4,7006E-03
496,75	7,3868E-04
497,11	4,6012E-03
497,47	4,5295E-03
497,83	6,4270E-03
498,19	4,0215E-03
498,55	1,8193E-03
498,91	4,7526E-03
499,27	4,9080E-03
499,63	3,0198E-03
499,98	2,5369E-03
500,34	2,3131E-03
500,70	3,1007E-03
501,06	3,3794E-03
501,42	2,0940E-03
501,78	2,3057E-03
502,14	2,0556E-03
502,50	6,3090E-04
502,86	2,9396E-03
503,22	1,6118E-03
503,58	4,1663E-03
503,94	8,6108E-04
504,29	9,0621E-04
504,65	9,0320E-04
505,01	1,0650E-03
505,37	-9,0382E-04
505,73	-7,3910E-04
506,09	2,9119E-03
506,45	7,8827E-04
506,81	2,0699E-03
507,16	2,7009E-03
507,52	1,5048E-03
507,88	1,8470E-03
508,24	1,1177E-03
508,60	1,3918E-03
508,96	3,4770E-03
509,32	3,0963E-03
509,67	5,5391E-04
510,03	2,7930E-04
510,39	1,6072E-03
510,75	3,4213E-03
511,11	6,0816E-04
511,47	2,0220E-03
511,82	2,1189E-03
512,18	3,8643E-04
512,54	-2,7559E-04
512,90	5,5143E-04
513,26	1,0062E-03
513,61	-6,5959E-04
513,97	8,7052E-04
514,33	4,3871E-04
514,69	5,0231E-04
515,05	1,9932E-03
515,40	5,5006E-04
515,76	-1,0921E-04
516,12	8,2997E-04
516,48	1,8224E-03
516,83	1,9537E-03
517,19	-3,2810E-04
517,55	-5,4907E-05
517,91	1,4098E-03
518,26	-4,9941E-04
518,62	1,4762E-03
518,98	1,8030E-03
519,34	2,4955E-03
519,69	3,8540E-04
520,05	-4,4018E-04
520,41	2,0222E-03
520,77	8,7690E-04
521,12	4,9852E-04
521,48	6,6502E-04
521,84	-2,2297E-04
522,19	1,6516E-04
522,55	-1,6357E-04
522,91	0,0000E00
523,27	5,4439E-05
523,62	1,0578E-03
523,98	1,2716E-03
524,34	-1,3627E-03
524,69	-1,6839E-03
525,05	5,0254E-04
525,41	6,0237E-04
525,76	1,8264E-03
526,12	2,2188E-04
526,48	8,8783E-04
526,83	1,7714E-03
527,19	3,2552E-04
527,55	6,0614E-04
527,90	5,9779E-04
528,26	1,6383E-03
528,62	1,6915E-03
528,97	4,9084E-04
529,33	1,7073E-03
529,69	5,4698E-05
530,04	1,6270E-03
530,40	2,2107E-04
530,76	1,2454E-03
531,11	1,2969E-03
531,47	2,1863E-03
531,82	1,0355E-03
532,18	1,0343E-03
532,54	9,7352E-04
532,89	1,2951E-03
533,25	3,1620E-03
533,60	5,3746E-05
533,96	8,6670E-04
534,32	3,6143E-03
534,67	-5,3978E-04
535,03	1,1363E-03
535,38	1,5828E-03
535,74	1,1246E-03
536,10	1,2959E-03
536,45	-1,0169E-03
536,81	5,3555E-05
537,16	5,8999E-04
537,52	-6,4141E-04
537,87	2,7055E-04
538,23	5,3304E-05
538,58	1,0028E-03
538,94	1,1714E-03
539,30	1,2159E-03
539,65	7,8200E-04
540,01	9,1154E-04
540,36	5,7879E-04
540,72	2,6334E-04
541,07	7,7882E-04
541,43	4,6496E-04
541,78	2,0584E-03
542,14	6,7717E-04
542,49	2,6275E-04
542,85	1,2046E-03
543,20	1,6137E-03
543,56	-1,5960E-03
543,91	-2,6042E-04
544,27	-1,2528E-03
544,62	-2,5907E-04
544,98	1,5141E-03
545,33	2,5817E-04
545,69	1,3260E-03
546,04	-8,6999E-04
546,40	0,0000E00
546,75	9,2422E-04
547,10	-1,0339E-04
547,46	-1,0383E-04
547,81	7,7891E-04
548,17	4,0982E-04
548,52	7,6958E-04
548,88	-4,1081E-04
549,23	2,2606E-03
549,59	-1,0822E-03
549,94	4,0767E-04
550,29	-1,0254E-04
550,65	1,4356E-03
551,00	5,1460E-04
551,36	-1,5384E-03
551,71	-3,0567E-04
552,06	2,4412E-03
552,42	1,8054E-03
552,77	-4,1163E-04
553,13	-7,1039E-04
553,48	1,0288E-03
553,83	-1,4068E-03
554,19	-1,0219E-03
554,54	1,2336E-03
554,90	-1,5449E-04
555,25	1,1259E-03
555,60	1,4997E-03
555,96	1,8010E-03
556,31	-1,5445E-04
556,66	7,2292E-04
557,02	-5,7104E-04
557,37	1,0333E-04
557,72	2,1277E-03
558,08	6,7226E-04
558,43	5,1580E-04
558,79	1,3047E-03
559,14	2,5288E-03
559,49	2,0213E-03
559,85	2,2452E-03
560,20	2,1362E-03
560,55	1,8212E-03
560,90	1,5202E-03
561,26	6,3458E-04
561,61	1,4205E-03
561,96	-4,7785E-04
562,32	1,2689E-03
562,67	8,4927E-04
563,02	7,3836E-04
563,38	1,0527E-04
563,73	3,2079E-04
564,08	-7,9981E-04
564,43	-2,1516E-04
564,79	1,4014E-03
565,14	1,8879E-03
565,49	1,3379E-03
565,84	-2,6713E-04
566,20	4,8756E-04
566,55	7,0578E-04
566,90	-1,0817E-03
567,25	-1,1957E-03
567,61	2,1797E-04
567,96	6,0112E-04
568,31	-2,1437E-03
568,66	1,5846E-03
569,02	1,9965E-03
569,37	1,5963E-03
569,72	2,2077E-03
570,07	9,9121E-04
570,42	3,3102E-04
570,78	1,8774E-03
571,13	1,1147E-04
571,48	-1,3911E-03
571,83	1,6774E-03
572,18	-3,3587E-04
572,54	2,5573E-03
572,89	1,2433E-03
573,24	1,6952E-04
573,59	-1,1676E-03
573,94	-7,8314E-04
574,30	-8,4152E-04
574,65	-3,9327E-04
575,00	0,0000E00
575,35	1,7102E-04
575,70	5,0862E-04
576,05	2,2585E-04
576,40	1,3524E-03
576,76	8,4333E-04
577,11	1,7088E-03
577,46	1,5274E-03
577,81	5,6666E-05
578,16	2,2689E-04
578,51	-8,5317E-04
578,86	3,3901E-04
579,21	1,0767E-03
579,57	1,4452E-03
579,92	1,5907E-03
580,27	2,3006E-04
580,62	6,9508E-04
580,97	-3,4292E-04
581,32	3,4246E-04
581,67	1,6118E-03
582,02	8,5970E-04
582,37	-1,8929E-03
582,72	5,7137E-05
583,08	1,6224E-03
583,43	-2,3165E-04
583,78	2,3302E-04
584,13	1,0378E-03
584,48	-1,7327E-04
584,83	2,3357E-04
585,18	1,0943E-03
585,53	5,7675E-04
585,88	7,5237E-04
586,23	1,7565E-03
586,58	1,1619E-03
586,93	5,7618E-05
587,28	7,0141E-04
587,63	1,6224E-03
587,98	-6,4044E-04
588,33	-3,5009E-04
588,68	-3,5122E-04
589,03	1,1050E-03
589,38	9,3272E-04
589,73	1,8177E-03
590,08	4,6715E-04
590,43	1,5714E-03
590,78	2,2140E-03
591,13	5,8311E-05
591,48	4,0592E-04
591,83	5,7933E-05
592,18	2,5199E-03
592,53	1,9362E-03
592,88	1,4050E-03
593,23	1,7691E-03
593,58	-4,1027E-04
593,93	-1,4221E-03
594,28	4,0904E-04
594,63	9,4395E-04
594,98	7,5987E-04
595,33	1,1205E-03
595,68	-7,0912E-04
596,02	3,6684E-03
596,37	3,5463E-04
596,72	1,7170E-03
597,07	1,6106E-03
597,42	0,0000E00
597,77	2,3854E-04
598,12	2,3818E-04
598,47	0,0000E00
598,82	-2,0396E-03
599,17	1,4386E-03
599,52	4,8331E-04
599,86	1,2099E-04
600,21	-2,4076E-04
600,56	1,1583E-03
600,91	-1,1499E-03
601,26	0,0000E00
601,61	1,0966E-03
601,96	7,3090E-04
602,30	-9,7088E-04
602,65	1,2214E-03
603,00	-3,6855E-04
603,35	3,0695E-04
603,70	9,8314E-04
604,05	1,7337E-03
604,40	-1,3666E-03
604,74	-7,9715E-04
605,09	-2,4724E-04
605,44	1,2486E-04
605,79	0,0000E00
606,14	4,3893E-04
606,48	1,9291E-03
606,83	0,0000E00
607,18	-2,2708E-03
607,53	-1,0769E-03
607,88	-6,2880E-04
608,22	2,0277E-03
608,57	4,4481E-04
608,92	-6,3435E-04
609,27	6,3873E-04
609,62	8,9979E-04
609,96	7,0592E-04
610,31	2,1215E-03
610,66	3,3606E-03
611,01	3,4168E-03
611,35	-3,9023E-04
611,70	7,8585E-04
612,05	1,4970E-03
612,40	1,0515E-03
612,74	-3,2753E-04
613,09	-1,0510E-03
613,44	8,5891E-04
613,79	-5,2948E-04
614,13	-2,2896E-03
614,48	0,0000E00
614,83	-1,8602E-03
615,17	8,6211E-04
615,52	-1,3386E-03
615,87	1,3518E-04
616,22	6,7504E-04
616,56	1,6940E-03
616,91	1,9015E-03
617,26	8,1607E-04
617,60	1,3636E-04
617,95	1,2323E-03
618,30	1,3822E-04
618,64	-1,1558E-03
618,99	1,5808E-03
619,34	-9,6552E-04
619,68	-4,2243E-03
620,03	-6,2346E-04
620,38	6,9423E-05
620,72	0,0000E00
621,07	6,2705E-04
621,42	1,0427E-03
621,76	-2,0991E-04
622,11	-1,4677E-03
622,45	5,6425E-04
622,80	-1,4094E-04
623,15	3,6174E-03
623,49	1,4898E-03
623,84	-2,7888E-03
624,18	-4,9986E-04
624,53	-1,4315E-04
624,88	-2,8492E-03
625,22	-2,8729E-04
625,57	7,8335E-04
625,91	-7,1854E-05
626,26	-1,3077E-03
626,61	-1,6539E-03
626,95	-7,2265E-04
627,30	-7,2712E-04
627,64	9,4628E-04
627,99	9,4824E-04
628,33	-5,0969E-04
628,68	1,3085E-03
629,03	6,5942E-04
629,37	-2,9403E-04
629,72	8,8823E-04
630,06	2,2779E-03
630,41	1,4068E-03
630,75	1,7874E-03
631,10	2,0755E-03
631,44	-1,4919E-04
631,79	1,6393E-03
632,13	-2,2444E-03
632,48	-8,1695E-04
632,82	-7,5136E-05
633,17	1,5944E-03
633,51	-6,0093E-04
633,86	7,5140E-05
634,20	5,2716E-04
634,55	7,5364E-05
634,89	1,3833E-03
635,24	2,2925E-04
635,58	-7,6333E-05
635,93	7,6206E-05
636,27	7,6726E-04
636,62	1,9731E-03
636,96	3,0342E-03
637,30	-9,2397E-04
637,65	1,4683E-03
637,99	1,4673E-03
638,34	0,0000E00
638,68	1,8561E-03
639,03	-3,5349E-03
639,37	2,0878E-03
639,71	2,8552E-03
640,06	1,5552E-03
640,40	-1,4809E-03
640,75	1,5546E-04
641,09	1,5653E-04
641,44	1,5635E-03
641,78	2,3349E-03
642,12	1,5759E-04
642,47	2,1947E-03
642,81	-1,5742E-04
643,15	2,8318E-03
643,50	4,4179E-03
643,84	-9,5213E-04
644,19	1,4349E-03
644,53	8,8066E-04
644,87	-6,3690E-04
645,22	3,2017E-04
645,56	1,5919E-03
645,90	-1,5213E-03
646,25	8,8545E-04
646,59	2,2715E-03
646,93	3,3878E-03
647,28	2,9048E-03
647,62	-8,0818E-04
647,96	3,2535E-04
648,31	1,2146E-03
648,65	-2,0460E-03
648,99	-1,9668E-03
649,34	-1,3296E-03
649,68	-8,1904E-04
650,02	1,6339E-04
650,36	-1,1495E-03
650,71	-2,3887E-03
651,05	-1,2247E-03
651,39	-6,6144E-04
651,74	4,1837E-04
652,08	2,5123E-03
652,42	-1,7529E-03
652,76	1,9344E-03
653,11	1,2588E-03
653,45	1,1795E-03
653,79	8,4289E-05
654,13	6,7299E-04
654,48	-5,9175E-04
654,82	5,9517E-04
655,16	2,5609E-04
655,50	8,5760E-04
655,85	2,6765E-03
656,19	8,5330E-05
656,53	-1,8893E-03
656,87	2,0715E-03
657,21	1,2101E-03
657,56	4,3517E-04
657,90	1,1267E-03
658,24	-1,0516E-03
658,58	-1,7423E-04
658,92	1,3889E-03
659,27	-2,6150E-04
659,61	-2,2783E-03
659,95	2,2728E-03
660,29	6,1786E-04
660,63	-8,9046E-05
660,97	1,4110E-03
661,32	2,1256E-03
661,66	1,1588E-03
662,00	4,7070E-03
662,34	-4,4884E-04
662,68	1,7035E-03
663,02	1,0764E-03
663,37	-8,9580E-05
663,71	-2,7110E-04
664,05	-5,4520E-04
664,39	2,3741E-03
664,73	3,6558E-04
665,07	1,8341E-04
665,41	-1,6502E-03
665,75	9,1859E-05
666,09	1,8410E-03
666,44	-9,2813E-05
666,78	4,6474E-04
667,12	2,4087E-03
667,46	-9,3678E-05
667,80	-9,3314E-04
668,14	-1,4160E-03
668,48	-2,3393E-03
668,82	1,7074E-03
669,16	1,2416E-03
669,50	-5,6468E-04
669,84	5,7283E-04
670,18	1,6287E-03
670,52	2,4864E-03
670,86	-1,0614E-03
671,20	1,3560E-03
671,54	1,5542E-03
671,88	4,2084E-03
672,22	1,3419E-03
672,57	-1,5627E-03
672,91	1,9620E-04
673,25	-3,9199E-04
673,59	2,9734E-04
673,93	-3,1658E-03
674,27	1,0889E-03
674,61	-8,0002E-04
674,95	8,9290E-04
675,28	-1,7058E-03
675,62	-6,0098E-04
675,96	1,4850E-03
676,30	1,7166E-03
676,64	-3,1130E-03
676,98	-2,1284E-03
677,32	5,1527E-04
677,66	9,3453E-04
678,00	5,1261E-04
678,34	-1,6381E-03
678,68	1,6475E-03
679,02	3,0075E-03
679,36	1,7674E-03
679,70	-1,7849E-03
680,04	2,5054E-03
680,38	1,0388E-03
680,72	1,5949E-03
681,06	2,0131E-03
681,39	4,6238E-03
681,73	-3,1807E-04
682,07	1,1807E-03
682,41	-1,3990E-03
682,75	2,5893E-03
683,09	2,1338E-04
683,43	-1,8348E-03
683,77	-1,1887E-03
684,11	1,1936E-03
684,44	-2,6133E-03
684,78	2,1763E-03
685,12	-2,5064E-03
685,46	4,3699E-03
685,80	-2,0904E-03
686,14	-2,1910E-04
686,48	3,4278E-03
686,81	1,4384E-03
687,15	4,1201E-03
687,49	3,2429E-03
687,83	5,5536E-04
688,17	1,0191E-03
688,51	0,0000E00
688,84	-1,1386E-03
689,18	-3,3810E-04
689,52	1,9380E-03
689,86	-3,0713E-03
690,20	-1,8463E-03
690,53	4,5178E-03
690,87	3,0777E-03
691,21	3,0038E-03
691,55	1,6262E-03
691,88	4,0508E-03
692,22	9,3575E-04
692,56	5,8348E-04
692,90	0,0000E00
693,23	5,1604E-03
693,57	2,5823E-03
693,91	3,6415E-03
694,25	-4,7249E-04
694,58	3,3282E-03
694,92	1,6786E-03
695,26	3,0847E-03
695,60	2,1534E-03
695,93	-4,7616E-04
696,27	-1,6623E-03
696,61	3,9815E-03
696,94	-1,4436E-03
697,28	2,4031E-04
697,62	5,2803E-03
697,96	-1,3442E-03
698,29	8,4269E-04
698,63	7,3418E-04
698,97	1,5986E-03
699,30	-5,8532E-03
699,64	-4,9476E-03
699,98	-3,3010E-03
700,31	7,4077E-04
700,65	-4,1790E-03
700,99	-6,1997E-04
701,32	-1,8559E-03
701,66	-1,9864E-03
702,00	-2,3604E-03
702,33	-1,2464E-03
702,67	-1,1196E-03
703,00	-6,3451E-04
703,34	-1,2486E-04
703,68	0,0000E00
704,01	6,7367E-03
704,35	-8,9017E-04
704,69	1,6436E-03
705,02	2,5500E-04
705,36	-1,9071E-03
705,69	2,4200E-03
706,03	2,1734E-03
706,36	1,4123E-03
706,70	-3,0788E-03
707,04	2,4184E-03
707,37	2,1751E-03
707,71	3,8606E-04
708,04	-2,0755E-03
708,38	-7,7512E-04
708,71	-1,0206E-03
709,05	1,2995E-03
709,39	1,5636E-03
709,72	-4,6950E-03
710,06	-6,5707E-04
710,39	6,6055E-03
710,73	1,7170E-03
711,06	1,0548E-03
711,40	4,3443E-03
711,73	2,6497E-03
712,07	4,6195E-03
712,40	4,5169E-03
712,74	-1,5996E-03
713,07	-3,6069E-03
713,41	-2,2727E-03
713,74	2,3983E-03
714,08	1,8810E-03
714,41	3,2345E-03
714,75	-1,3436E-04
715,08	-1,4683E-03
715,42	2,6985E-04
715,75	-3,2702E-03
716,08	-1,3600E-04
716,42	-1,2173E-03
716,75	3,2834E-03
717,09	8,2052E-04
717,42	-1,1006E-03
717,76	2,8770E-03
718,09	4,1333E-04
718,43	-6,8909E-04
718,76	4,1715E-03
719,09	-4,1766E-04
719,43	-4,1427E-04
719,76	-5,1309E-03
720,10	5,5860E-03
720,43	1,1111E-03
720,76	-3,0786E-03
721,10	1,3921E-04
721,43	1,6829E-03
721,76	1,1394E-03
722,10	-1,2738E-03
722,43	1,5568E-03
722,77	0,0000E00
723,10	1,1395E-03
723,43	-4,2703E-03
723,77	-5,7143E-04
724,10	1,4234E-03
724,43	1,1508E-03
724,77	-1,5865E-03
725,10	1,4414E-04
725,43	-1,0107E-03
725,77	-2,1726E-03
726,10	1,9073E-03
726,43	2,1775E-03
726,77	8,8767E-04
727,10	4,4205E-04
727,43	-4,3789E-04
727,77	-7,3633E-04
728,10	1,9213E-03
728,43	-4,0003E-03
728,76	-1,6391E-03
729,10	5,6470E-03
729,43	-5,5034E-03
729,76	2,5651E-03
730,09	-3,1721E-03
730,43	-5,8644E-03
730,76	-1,0569E-03
731,09	-3,0020E-03
731,42	2,1322E-03
731,76	-1,8168E-03
732,09	-1,3716E-03
732,42	1,0635E-03
732,75	-6,5750E-03
733,09	6,1922E-04
733,42	-3,1135E-03
733,75	5,2525E-03
734,08	3,1282E-04
734,41	8,4219E-03
734,75	4,4991E-03
735,08	5,6598E-03
735,41	5,3191E-03
735,74	1,5879E-03
736,07	-7,9572E-04
736,41	7,9572E-04
736,74	1,2821E-03
737,07	2,3929E-03
737,40	2,7220E-03
737,73	4,0163E-03
738,06	3,3825E-03
738,40	-6,1015E-03
738,73	2,0940E-03
739,06	-1,7856E-03
739,39	-1,6440E-03
739,72	3,8247E-03
740,05	3,4515E-03
740,38	8,2284E-04
740,72	6,7840E-03
741,05	-1,8337E-03
741,38	9,9609E-04
741,71	-3,3745E-04
742,04	-2,6974E-03
742,37	-2,6972E-03
742,70	-5,0513E-04
743,03	-5,2359E-03
743,36	-4,4417E-03
743,69	5,1173E-04
744,02	1,5432E-03
744,36	1,2098E-03
744,69	7,7932E-03
745,02	8,7036E-04
745,35	4,3642E-03
745,68	-6,1104E-03
746,01	-2,7912E-03
746,34	2,1115E-03
746,67	5,8809E-03
747,00	0,0000E00
747,33	-2,1477E-03
747,66	1,6096E-03
747,99	-6,4230E-03
748,32	-7,1828E-04
748,65	9,0757E-04
748,98	-3,7908E-03
749,31	-6,3754E-03
749,64	-6,4193E-03
749,97	9,2437E-04
750,30	-5,5540E-04
750,63	1,6573E-03
750,96	-2,5883E-03
751,29	2,7808E-03
751,62	-1,4866E-03
751,95	1,8872E-04
752,28	-2,9936E-03
752,61	2,4580E-03
752,94	7,5804E-03
753,27	7,6104E-04
753,60	9,4288E-03
753,92	3,8179E-04
754,25	-2,5060E-03
754,58	-1,9185E-04
754,91	-2,7334E-03
755,24	9,1251E-03
755,57	-2,1428E-03
755,90	-2,9384E-03
756,23	3,9308E-04
756,56	-3,5122E-03
756,89	-1,9765E-04
757,22	3,9680E-04
757,54	4,7950E-03
757,87	7,4718E-03
758,20	4,2325E-03
758,53	4,0281E-03
758,86	3,2377E-03
759,19	-1,0149E-03
759,52	-2,0138E-04
759,84	3,0746E-03
760,17	-1,8400E-03
760,50	8,2480E-04
760,83	1,2502E-03
761,16	-4,0571E-03
761,49	3,5546E-03
761,81	8,4380E-04
762,14	1,0689E-03
762,47	-6,7709E-03
762,80	-4,4248E-03
763,13	8,4697E-03
763,45	7,9230E-03
763,78	1,9479E-03
764,11	8,5821E-04
764,44	-4,7538E-03
764,77	3,2236E-03
765,09	-1,0934E-03
765,42	2,1881E-03
765,75	3,3043E-03
766,08	-1,0995E-03
766,40	1,1120E-03
766,73	-3,3218E-03
767,06	2,6503E-03
767,39	-3,6069E-03
767,71	7,6444E-03
768,04	-2,2658E-04
768,37	2,0361E-03
768,70	7,7220E-03
769,02	6,7983E-04
769,35	-6,8618E-04
769,68	-2,7596E-03
770,00	3,2041E-03
770,33	1,6402E-03
770,66	-3,7370E-03
770,99	1,1544E-03
771,31	-3,5315E-03
771,64	2,8073E-03
771,97	-1,0208E-02
772,29	-6,1026E-03
772,62	-7,1916E-03
772,95	1,1954E-03
773,27	-9,6480E-04
773,60	1,4359E-03
773,93	-4,9978E-03
774,25	5,7943E-03
774,58	-9,7086E-04
774,90	7,9651E-03
775,23	1,2220E-03
775,56	2,4599E-04
775,88	-9,8017E-04
776,21	-9,9030E-04
776,54	-9,6777E-03
776,86	-5,6912E-03
777,19	-1,9994E-03
777,51	5,0294E-04
777,84	9,3134E-03
778,16	1,5300E-03
778,49	-4,5685E-03
778,82	-5,0941E-04
779,14	-6,1306E-03
779,47	1,7930E-03
779,79	-1,5392E-03
780,12	-3,1187E-03
780,44	3,3526E-03
780,77	6,2520E-03
781,10	0,0000E00
781,42	1,5894E-03
781,75	-7,8941E-04
782,07	7,8982E-04
782,40	2,0037E-02
782,72	6,8999E-03
783,05	1,6067E-03
783,37	-8,0489E-04
783,70	2,1517E-03
784,02	1,3610E-02
784,35	-3,8072E-03
784,67	-7,4296E-03
785,00	1,3629E-03
785,32	6,3910E-03
785,65	-1,9443E-03
785,97	3,2935E-03
786,30	-9,3035E-03
786,62	-5,5749E-04
786,94	3,6905E-03
787,27	2,8150E-03
787,59	-5,6391E-03
787,92	-7,1623E-03
788,24	-8,4667E-04
788,57	7,0470E-03
788,89	4,2869E-03
789,22	1,1333E-03
789,54	-1,4259E-03
789,86	3,3938E-03
790,19	5,6853E-04
790,51	5,9528E-03
790,84	0,0000E00
791,16	-6,2708E-03
791,48	-4,5653E-03
791,81	2,8432E-03
792,13	-6,0069E-03
792,45	3,7347E-03
792,78	-1,1416E-02
793,10	-7,4136E-03
793,43	-6,5288E-03
793,75	7,6961E-03
794,07	2,0187E-03
794,40	-7,1655E-03
794,72	3,6865E-03
795,04	6,8451E-03
795,37	-8,2482E-03
795,69	-6,8917E-03
796,01	-3,7007E-03
796,34	-5,7449E-03
796,66	-5,6462E-03
796,98	-1,6813E-03
797,30	-2,8309E-03
797,63	-3,6594E-03
797,95	0,0000E00
798,27	-8,8297E-03
798,60	-1,9882E-03
798,92	-7,9459E-03
799,24	-4,4785E-03
799,56	1,4044E-03
799,89	-2,2722E-03
800,21	6,1901E-03
800,53	1,2508E-02
800,85	8,4561E-04
801,18	-3,3887E-03
801,50	-8,9927E-03
801,82	3,1111E-03
802,14	8,4444E-04
802,47	-1,3814E-02
802,79	1,4163E-03
803,11	1,0450E-02
803,43	-3,3714E-03
803,75	1,4113E-03
804,08	4,5419E-03
804,40	7,3612E-03
804,72	5,3993E-03
805,04	-5,6564E-04
805,36	2,5754E-03
805,69	8,4872E-03
806,01	5,1385E-03
806,33	2,8627E-04
806,65	3,1758E-03
806,97	2,8957E-04
807,29	1,1006E-02
807,62	4,5956E-03
807,94	-4,8709E-03
808,26	-4,6516E-03
808,58	5,5036E-03
808,90	-3,7831E-03
809,22	-6,1811E-03
809,54	3,4954E-03
809,86	8,7760E-04
810,18	-9,3903E-03
810,51	4,3803E-03
810,83	8,5455E-03
811,15	5,9845E-04
811,47	-2,9545E-03
811,79	5,9169E-03
812,11	5,9250E-04
812,43	-2,3753E-03
812,75	6,0254E-03
813,07	7,3073E-03
813,39	4,2497E-03
813,71	1,0641E-02
814,03	-9,0637E-04
814,35	-6,9542E-03
814,67	6,6285E-03
814,99	-6,1011E-04
815,31	-3,9628E-03
815,64	1,1091E-02
815,96	6,0949E-04
816,28	-3,0964E-04
816,60	7,0793E-03
816,92	4,0292E-03
817,24	5,6130E-03
817,56	3,7168E-03
817,88	1,2673E-03
818,19	-3,1200E-03
818,51	-1,1702E-02
818,83	1,1555E-02
819,15	2,8495E-03
819,47	-6,7024E-03
819,79	-8,8984E-03
820,11	-4,1755E-03
820,43	3,5197E-03
820,75	1,9102E-03
821,07	-3,2064E-03
821,39	-1,6243E-03
821,71	3,9156E-03
822,03	-1,3075E-03
822,35	9,8428E-04
822,67	1,0453E-02
822,99	4,0026E-03
823,31	-2,6384E-03
823,62	3,3375E-03
823,94	1,6569E-03
824,26	3,3589E-03
824,58	-7,4048E-03
824,90	-5,4141E-03
825,22	2,0248E-03
825,54	3,7587E-03
825,86	2,0428E-03
826,17	-3,4028E-04
826,49	3,6971E-03
826,81	-6,1684E-03
827,13	-7,6059E-03
827,45	-2,7459E-03
827,77	-3,4510E-03
828,08	-5,5889E-03
828,40	-1,0503E-02
828,72	-3,4998E-04
829,04	-3,8507E-03
829,36	1,1117E-02
829,67	6,0218E-03
829,99	-7,1983E-04
830,31	3,5888E-03
830,63	7,6295E-03
830,95	-4,7003E-03
831,26	4,0210E-03
831,58	7,2445E-04
831,90	6,1464E-03
832,22	3,6491E-03
832,53	3,3453E-03
832,85	-4,4989E-03
833,17	2,2334E-03
833,49	-5,6149E-03
833,80	-3,7530E-04
834,12	1,1712E-02
834,44	3,7947E-03
834,76	5,7146E-03
835,07	-4,5916E-03
835,39	-1,2747E-02
835,71	-6,8283E-03
836,02	1,8630E-02
836,34	-1,5265E-03
836,66	2,6942E-03
836,97	-7,2988E-03
837,29	-1,1574E-03
837,61	-5,0468E-03
837,93	1,9855E-03
838,24	7,8236E-03
838,56	-8,5597E-03
838,88	-4,7906E-03
839,19	4,3879E-03
839,51	8,8162E-03
839,82	-8,4150E-03
840,14	1,0873E-02
840,46	-9,6097E-03
840,77	5,6822E-03
841,09	3,2360E-03
841,41	-1,0984E-02
841,72	-1,5031E-02
842,04	-7,3397E-03
842,35	-1,0167E-02
842,67	1,6450E-03
842,99	-7,4125E-03
843,30	-7,4428E-03
843,62	1,1261E-02
843,93	-8,8708E-03
844,25	-1,2876E-02
844,56	4,2376E-03
844,88	-4,2665E-03
845,20	-2,5420E-03
845,51	-9,3480E-03
845,83	6,8655E-03
846,14	3,4376E-03
846,46	-1,2760E-03
846,77	-2,4313E-02
847,09	-1,1465E-02
847,40	3,4932E-03
847,72	2,6720E-03
848,03	-2,6353E-03
848,35	7,1059E-03
848,66	-4,0284E-03
848,98	-9,3953E-03
849,29	-1,7899E-03
849,61	1,2631E-02
849,92	4,0553E-03
850,24	1,2246E-02
850,55	-5,9383E-03
850,87	-2,7489E-03
851,18	-4,5710E-04
851,50	2,3199E-03
851,81	-2,7494E-03
852,12	-6,0034E-03
852,44	9,7081E-03
852,75	4,2629E-03
853,07	1,4077E-03
853,38	3,3412E-03
853,70	-8,0218E-03
854,01	-6,6457E-03
854,32	-4,3334E-03
854,64	1,7530E-02
854,95	0,0000E00
855,27	-1,4589E-03
855,58	-1,2668E-02
855,89	-4,8348E-04
856,21	-1,3811E-02
856,52	-4,4393E-03
856,83	7,9728E-03
857,15	4,9757E-03
857,46	-4,4730E-03
857,77	6,0223E-03
858,09	-3,0213E-03
858,40	-7,0668E-03
858,71	-5,5143E-03
859,03	-2,0358E-02
859,34	-1,5994E-02
859,65	-4,5526E-03
859,97	1,2275E-02
860,28	-8,8179E-03
860,59	1,9694E-02
860,91	1,0520E-02
861,22	-2,6115E-03
861,53	1,0998E-02
861,84	-6,8629E-03
862,16	1,6038E-02
862,47	-1,0178E-02
862,78	9,6686E-03
863,10	-1,5531E-02
863,41	1,4665E-02
863,72	6,5468E-03
864,03	4,3203E-03
864,35	-1,6859E-02
864,66	-2,2113E-03
864,97	-8,7086E-03
865,28	-1,1675E-02
865,59	-1,6241E-02
865,91	3,3863E-03
866,22	6,1293E-03
866,53	-2,3503E-02
866,84	-1,0256E-02
867,15	-1,3188E-02
867,47	-4,0113E-03
867,78	1,1469E-02
868,09	1,3159E-02
868,40	-1,1509E-03
868,71	1,8628E-02
869,02	-1,7013E-02
869,34	-1,4199E-02
869,65	-5,9282E-03
869,96	6,4826E-03
870,27	1,1992E-03
870,58	2,9742E-03
870,89	-1,6960E-02
871,20	-1,3284E-02
871,52	-2,1468E-02
871,83	-1,5824E-02
872,14	4,2932E-03
872,45	3,6929E-03
872,76	3,1304E-03
873,07	2,5017E-03
873,38	-1,8873E-03
873,69	-1,9903E-02
874,00	-7,0167E-03
874,31	-3,7846E-03
874,62	-3,1552E-03
874,94	-1,9331E-02
875,25	-6,3892E-04
875,56	2,6203E-03
875,87	1,0275E-02
876,18	2,6374E-02
876,49	9,2560E-03
876,80	1,9025E-02
877,11	1,4959E-02
877,42	-2,6254E-03
877,73	6,6137E-03
878,04	5,4097E-03
878,35	1,3450E-03
878,66	1,3282E-02
878,97	-1,4119E-02
879,28	1,5525E-02
879,59	2,0438E-03
879,90	1,2975E-02
880,21	-1,7590E-02
880,52	2,8434E-02
880,83	9,5388E-03
881,14	1,9743E-02
881,45	-3,4115E-03
881,76	2,7724E-02
882,07	-1,4233E-02
882,37	-8,2410E-03
882,68	3,3768E-03
882,99	2,2388E-02
883,30	-2,7378E-03
883,61	5,5456E-03
883,92	-1,6213E-02
884,23	1,4327E-02
884,54	-1,0742E-02
884,85	1,4999E-02
885,16	-1,0221E-02
885,47	1,5017E-02
885,77	-7,5590E-03
886,08	4,8216E-03
886,39	-1,3748E-03
886,70	7,5393E-03
887,01	-1,7842E-02
887,32	-8,1597E-03
887,63	6,9557E-04
887,93	6,8027E-04
888,24	-2,2659E-02
888,55	-1,5778E-02
888,86	2,2690E-02
889,17	-3,0536E-02
889,47	1,3732E-03
889,78	-1,9303E-02
890,09	-6,8599E-03
890,40	4,1395E-03
890,71	1,7101E-02
891,01	6,2947E-03
891,32	-2,2513E-02
891,63	-1,7088E-02
891,94	-1,4530E-02
892,25	3,3992E-03
892,55	6,8712E-04
892,86	-2,3405E-02
893,17	6,9220E-04
893,48	-1,2376E-02
893,78	-7,5356E-03
894,09	-4,1385E-03
894,40	3,0234E-02
894,70	-1,7489E-02
895,01	3,4593E-03
895,32	4,8495E-03
895,63	1,8021E-02
895,93	1,3985E-03
896,24	2,7826E-03
896,55	-1,1865E-02
896,85	-9,1190E-03
897,16	1,6169E-02
897,47	-2,7034E-02
897,77	1,1759E-02
898,08	1,4692E-02
898,39	9,8361E-03
898,69	1,8373E-02
899,00	2,9985E-02
899,31	1,9192E-02
899,61	8,5954E-03
899,92	1,0610E-02
900,23	2,8338E-03
900,53	7,1573E-04
900,84	1,4099E-02
901,14	-2,1508E-03
901,45	3,4535E-02
901,76	6,3668E-03
902,06	2,3230E-02
902,37	-1,0856E-02
902,67	2,9219E-03
902,98	1,6730E-02
903,29	-1,5239E-02
903,59	1,3782E-02
903,90	-7,4119E-04
904,20	1,4810E-02
904,51	5,1005E-03
904,81	-1,4813E-02
905,12	-2,9230E-03
905,42	2,2563E-03
905,73	7,5849E-03
906,03	-1,2617E-02
906,34	3,0546E-02
906,64	-1,3550E-02
906,95	1,7281E-02
907,25	-1,5346E-03
907,56	1,5417E-03
907,86	-7,7097E-04
908,17	-5,4370E-03
908,47	-3,0499E-02
908,78	-1,8616E-02
909,08	1,7249E-02
909,39	-2,8344E-02
909,69	6,4005E-03
910,00	-2,3193E-02
910,30	-3,9059E-02
910,61	-4,7778E-03
910,91	8,0119E-04
911,21	-7,2854E-03
911,52	-9,1359E-03
911,82	-4,9485E-03
912,13	-2,3498E-02
912,43	-1,6488E-03
912,74	-1,7573E-02
913,04	8,3301E-04
913,34	7,5845E-03
913,65	-2,0722E-02
913,95	1,8992E-02
914,25	3,4170E-03
914,56	1,1165E-02
914,86	4,9193E-02
915,17	7,0001E-03
915,47	-2,6058E-03
915,77	-8,9335E-03
916,08	-1,0532E-02
916,38	6,0502E-03
916,68	-4,5038E-02
916,99	4,2283E-02
917,29	1,0835E-02
917,59	1,0885E-02
917,90	-4,1137E-02
918,20	1,8061E-03
918,50	-8,9380E-04
918,80	-1,0938E-02
919,11	-1,8323E-03
919,41	1,5793E-02
919,71	2,0229E-02
920,02	-1,1147E-02
920,32	2,5419E-02
920,62	1,4332E-02
920,92	3,0556E-02
921,23	3,2673E-02
921,53	2,5930E-02
921,83	-1,7346E-02
922,13	1,4831E-02
922,44	-1,1702E-02
922,74	1,6728E-02
923,04	3,1799E-02
923,34	3,1683E-02
923,64	-1,1843E-02
923,95	-9,0630E-03
924,25	-1,4153E-02
924,55	-5,4682E-02
924,85	3,0915E-02
925,15	2,0684E-03
925,46	2,3602E-02
925,76	1,7667E-02
926,06	-4,2282E-02
926,36	-2,7701E-02
926,66	1,9105E-02
926,96	-3,0814E-02
927,26	7,5626E-03
927,57	-2,7007E-02
927,87	4,2758E-02
928,17	2,8394E-02
928,47	-2,2197E-03
928,77	0,0000E00
929,07	3,3606E-03
929,37	2,2221E-03
929,67	-2,9316E-02
929,98	-1,5750E-02
930,28	-1,8087E-02
930,58	8,0209E-03
930,88	-1,7575E-02
931,18	4,4451E-02
931,48	-1,8638E-02
931,78	9,4473E-03
932,08	1,1983E-03
932,38	-2,0591E-02
932,68	-5,2989E-02
932,98	-4,8607E-03
933,28	-3,7606E-02
933,58	9,7640E-03
933,88	2,9620E-02
934,18	-1,1279E-02
934,48	-3,1104E-02
934,78	3,7742E-02
935,08	-6,2558E-03
935,38	-4,4623E-02
935,68	4,2921E-02
935,98	1,2656E-03
936,28	4,8160E-02
936,58	-4,1565E-02
936,88	2,5940E-03
937,18	9,1097E-03
937,48	5,4575E-02
937,78	-3,0500E-02
938,08	-8,0818E-03
938,38	6,6966E-03
938,68	2,6065E-02
938,98	6,9407E-03
939,28	-2,3386E-02
939,57	-2,7930E-03
939,87	1,6638E-02
940,17	8,4716E-03
940,47	1,1418E-02
940,77	2,6151E-02
941,07	2,9937E-02
941,37	-4,2734E-03
941,67	-1,4340E-02
941,97	4,1335E-02
942,26	6,5565E-02
942,56	6,1294E-02
942,86	-1,5047E-03
943,16	0,0000E00
943,46	2,4356E-02
943,76	-2,7069E-02
944,06	3,3500E-02
944,35	-2,3153E-02
944,65	4,6947E-03
944,95	-1,5332E-03
945,25	6,3580E-03
945,55	-3,1078E-02
945,84	8,0113E-03
946,14	-4,6375E-02
946,44	-2,6215E-02
946,74	-4,8693E-02
947,03	-8,3218E-03
947,33	-2,7783E-02
947,63	-1,6343E-02
947,93	-6,7500E-03
948,23	2,0633E-02
948,52	-2,3629E-02
948,82	4,8187E-02
949,12	-4,6343E-02
949,41	-5,0253E-02
949,71	8,6863E-03
950,01	-2,1032E-02
950,31	-4,0879E-02
950,60	-5,7307E-02
950,90	-1,4212E-02
951,20	-5,9125E-02
951,49	2,1957E-02
951,79	-1,4059E-02
952,09	2,7380E-02
952,38	-2,4937E-02
952,68	3,2373E-02
952,98	-9,1064E-03
953,27	2,1261E-02
953,57	-2,8059E-02
953,87	2,2215E-02
954,16	-3,9972E-02
954,46	-5,0937E-02
954,76	-4,5553E-02
955,05	-9,4611E-02
955,35	-2,5265E-02
955,64	-2,0223E-03
955,94	2,0081E-02
956,24	-1,4021E-02
956,53	1,2087E-02
956,83	-7,1536E-02
957,12	-1,0147E-02
957,42	-7,6773E-02
957,72	-3,9487E-02
958,01	-4,1916E-03
958,31	6,8724E-02
958,60	-3,4191E-02
958,90	4,2728E-03
959,19	6,5098E-03
959,49	-4,5585E-02
959,78	6,7468E-02
960,08	-1,1013E-02
960,37	-6,7740E-03
960,67	2,3139E-02
960,96	-3,5751E-02
961,26	1,1476E-02
961,55	-4,2121E-02
961,85	-5,2372E-02
962,14	-3,0163E-02
962,44	-9,3634E-03
962,73	-8,9762E-02
963,03	-1,6833E-02
963,32	1,3443E-01
963,62	3,0893E-02
963,91	3,2275E-02
964,21	2,6949E-02
964,50	4,7201E-02
964,80	-3,9775E-02
965,09	3,7207E-02
965,38	-1,5443E-02
965,68	-1,0233E-02
965,97	3,0096E-02
966,27	-2,0639E-02
966,56	-7,2966E-02
966,85	-7,8854E-03
967,15	7,3702E-02
967,44	-6,2952E-02
967,74	4,5481E-02
968,03	-3,5141E-02
968,32	9,2763E-02
968,62	1,2068E-01
968,91	8,4823E-03
969,20	-4,9227E-02
969,50	-6,9731E-02
969,79	8,3967E-03
970,08	2,8699E-02
970,38	2,8812E-03
970,67	2,9664E-03
970,96	-4,6603E-02
971,26	2,8929E-03
971,55	3,2189E-02
971,84	9,0144E-03
972,13	5,6260E-02
972,43	-3,6575E-02
972,72	3,1039E-03
973,01	7,0316E-02
973,31	-1,2470E-02
973,60	6,5951E-02
973,89	-3,5245E-02
974,18	-4,2160E-02
974,48	9,7982E-02
974,77	7,6340E-02
975,06	1,4128E-01
975,35	-3,6015E-02
975,64	3,0086E-02
975,94	1,0102E-02
976,23	-1,6321E-01
976,52	-9,1689E-02
976,81	3,4260E-02
977,10	-3,0944E-02
977,40	1,1379E-01
977,69	-1,0621E-02
977,98	-9,1114E-02
978,27	-7,4931E-02
978,56	2,1850E-02
978,86	-4,7813E-02
979,15	4,7573E-02
979,44	-3,0227E-02
979,73	1,2066E-01
980,02	3,0313E-02
980,31	-6,5253E-02
980,60	-7,2199E-02
980,89	-1,2851E-01
981,19	-5,4484E-02
981,48	-1,0868E-01
981,77	-4,4485E-02
982,06	-2,3943E-01
982,35	-5,3028E-02
982,64	2,0655E-02
982,93	-1,2729E-01
983,22	9,3994E-02
983,51	3,4254E-02
983,80	0,0000E00
984,09	-1,1315E-01
984,38	-3,3953E-02
984,67	-1,9686E-01
984,96	1,2244E-01
985,25	9,4532E-02
985,55	-8,9139E-03
985,84	5,9520E-02
986,13	1,3387E-02
986,42	-8,2934E-02
986,71	4,6518E-02
987,00	9,7060E-02
987,29	1,4821E-02
987,58	6,5837E-02
987,86	1,2420E-01
988,15	1,4400E-01
988,44	-7,3752E-02
988,73	3,4475E-02
989,02	1,5018E-01
989,31	-2,9485E-02
989,60	-8,1827E-02
989,89	-1,7006E-01
990,18	-1,1909E-01
990,47	-5,8925E-02
990,76	-2,0292E-02
991,05	3,1149E-02
991,34	-6,4587E-02
991,63	-5,4948E-02
991,92	7,4382E-02
992,20	2,7403E-02
992,49	0,0000E00
992,78	-1,6400E-01
993,07	-6,8025E-02
993,36	6,9572E-02
993,65	-1,7655E-02
993,94	1,1492E-01
994,22	-1,1141E-01
994,51	-2,1189E-01
994,80	-2,0044E-01
995,09	1,9875E-01
995,38	1,9603E-01
995,67	5,6296E-02
995,95	1,1382E-01
996,24	-1,1047E-01
996,53	2,6457E-02
996,82	1,3475E-01
997,11	1,2125E-02
997,39	-1,4945E-01
997,68	-1,2529E-01
997,97	-1,0040E-01
998,26	-1,8013E-01
998,54	5,0664E-02
998,83	6,1969E-02
999,12	1,9693E-01
999,41	4,0829E-02
999,69	-7,7526E-02
999,98	5,0415E-02
1000,27	-1,7179E-01
1000,56	6,6110E-02
1000,84	4,4230E-02
1001,13	1,7036E-01
1001,42	-5,3079E-02
1001,70	1,0328E-01
1001,99	-9,5161E-02
1002,28	1,9247E-01
1002,56	1,5483E-01
1002,85	3,0761E-02
1003,14	1,0761E-01
1003,42	-4,9503E-02
1003,71	1,6438E-01
1004,00	7,3049E-02
1004,28	2,0191E-01
1004,57	-1,6129E-02
1004,86	-1,5761E-01
1005,14	-3,1212E-01
1005,43	1,4463E-01
1005,72	-5,2441E-02
1006,00	1,8386E-01
1006,29	1,6820E-01
1006,57	-1,8230E-02
1006,86	-1,1494E-01
1007,15	4,6411E-02
1007,43	3,1905E-01
1007,72	4,6234E-02
1008,00	2,1348E-01
1008,29	3,4334E-01
1008,57	4,0852E-02
1008,86	9,5050E-02
1009,14	3,1437E-02
1009,43	0,0000E00
1009,71	2,1305E-02
1010,00	1,6796E-01
1010,29	9,4907E-02
1010,57	1,2804E-01
1010,86	-1,8712E-01
1011,14	2,1574E-02
1011,43	1,1060E-02
1011,71	1,1536E-01
1011,99	-2,6228E-01
1012,28	-6,0112E-02
1012,56	7,9196E-02
1012,85	6,1141E-02
1013,13	2,5407E-01
1013,42	5,9765E-02
1013,70	4,5388E-01
1013,99	-1,3230E-01
1014,27	-6,4948E-02
1014,56	-5,4780E-02
1014,84	2,1956E-01
1015,12	-2,4760E-01
1015,41	0,0000E00
1015,69	-1,5418E-01
1015,98	-1,1371E-01
1016,26	3,1114E-01
1016,54	4,5037E-01
1016,83	-3,8291E-01
1017,11	2,6023E-01
1017,39	-1,4197E-02
1017,68	5,0179E-01
1017,96	-4,6811E-01
1018,25	0,0000E00
1018,53	1,6480E-02
1018,81	-2,7176E-01
1019,10	-3,1572E-02
1019,38	-3,2178E-01
1019,66	-1,6028E-01
1019,94	2,5504E-01
1020,23	-1,8579E-01
1020,51	-2,0699E-01
1020,79	-1,5521E-01
1021,08	-5,9578E-01
1021,36	-1,5230E-01
1021,64	-1,7426E-01
1021,93	-3,8227E-01
1022,21	-1,3382E-01
1022,49	-1,3382E-01
>>>>>End Processed Spectral Data<<<<<
