SpectraSuite Data File
++++++++++++++++++++++++++++++++++++
Date: Wed Mar 01 11:38:17 EET 2017
User: mkilpela
Dark Spectrum Present: Yes
Reference Spectrum Present: No
Number of Sampled Component Spectra: 1
Spectrometers: JAZA2845
Integration Time (usec): 108681 (JAZA2845)
Spectra Averaged: 1 (JAZA2845)
Boxcar Smoothing: 0 (JAZA2845)
Correct for Electrical Dark: No (JAZA2845)
Strobe/Lamp Enabled: No (JAZA2845)
Correct for Detector Non-linearity: No (JAZA2845)
Correct for Stray Light: No (JAZA2845)
Number of Pixels in Processed Spectrum: 2048
>>>>>Begin Processed Spectral Data<<<<<
340,21	0,0000E00
340,58	0,0000E00
340,96	0,0000E00
341,33	0,0000E00
341,70	-0,0000E00
342,07	-0,0000E00
342,45	0,0000E00
342,82	-0,0000E00
343,19	0,0000E00
343,57	0,0000E00
343,94	0,0000E00
344,31	-0,0000E00
344,68	0,0000E00
345,06	0,0000E00
345,43	0,0000E00
345,80	-0,0000E00
346,18	0,0000E00
346,55	-0,0000E00
346,92	0,0000E00
347,29	-0,0000E00
347,67	0,0000E00
348,04	0,0000E00
348,41	0,0000E00
348,78	-0,0000E00
349,16	0,0000E00
349,53	-0,0000E00
349,90	0,0000E00
350,27	-4,2956E-02
350,64	-6,6166E-03
351,02	1,4089E-02
351,39	-2,9071E-03
351,76	9,0313E-03
352,13	-1,1604E-02
352,51	-1,5217E-03
352,88	2,6395E-02
353,25	2,7355E-02
353,62	6,8734E-02
353,99	-2,0503E-02
354,37	5,4238E-03
354,74	-1,9246E-02
355,11	-1,6198E-03
355,48	-1,2195E-02
355,85	5,2234E-03
356,23	1,4940E-03
356,60	-3,0765E-03
356,97	-4,6847E-03
357,34	-3,1632E-04
357,71	3,3636E-03
358,08	-5,3898E-03
358,46	1,9399E-03
358,83	5,6115E-03
359,20	-6,0595E-03
359,57	0,0000E00
359,94	-3,1044E-03
360,31	1,4502E-02
360,69	-4,4031E-03
361,06	-6,9223E-03
361,43	8,5228E-03
361,80	-2,3262E-03
362,17	6,6687E-03
362,54	-1,1470E-02
362,91	0,0000E00
363,29	-8,5494E-03
363,66	-2,0660E-03
364,03	-1,1457E-03
364,40	-3,2982E-04
364,77	2,7732E-03
365,14	3,7804E-03
365,51	-1,1765E-02
365,88	3,0181E-03
366,26	2,2215E-02
366,63	8,6581E-03
367,00	1,3240E-02
367,37	5,6081E-03
367,74	2,1366E-02
368,11	-4,0637E-03
368,48	3,7940E-03
368,85	2,3060E-03
369,22	9,2633E-03
369,59	-7,2111E-03
369,97	1,4503E-02
370,34	1,3368E-02
370,71	-3,2183E-04
371,08	6,1201E-03
371,45	-5,3143E-03
371,82	1,1176E-02
372,19	1,8366E-02
372,56	1,5236E-02
372,93	1,5390E-02
373,30	1,1753E-02
373,67	2,6171E-03
374,04	4,8617E-02
374,41	8,2360E-03
374,78	9,4851E-03
375,15	9,5847E-03
375,52	6,6376E-03
375,89	-1,9342E-03
376,26	5,8258E-03
376,63	3,4483E-03
377,00	-7,5154E-03
377,38	-3,5310E-03
377,75	9,0812E-02
378,12	2,0818E-02
378,49	4,3463E-03
378,86	-1,0503E-03
379,23	-8,5657E-04
379,60	-3,3914E-03
379,97	-5,1152E-03
380,34	1,1689E-02
380,71	2,3780E-03
381,08	-6,3727E-03
381,45	-8,5156E-03
381,82	-3,4336E-03
382,19	7,1657E-03
382,55	-8,2296E-03
382,92	1,4368E-03
383,29	-2,3073E-04
383,66	-4,6859E-03
384,03	-9,1497E-04
384,40	-2,4958E-03
384,77	-1,8780E-03
385,14	-4,6779E-03
385,51	-6,4883E-03
385,88	-8,3289E-03
386,25	7,7683E-04
386,62	2,5692E-03
386,99	6,6353E-03
387,36	7,2217E-03
387,73	8,1727E-03
388,10	-1,1638E-03
388,47	6,0624E-03
388,84	-1,4485E-03
389,21	4,4792E-03
389,58	2,4850E-03
389,94	2,3510E-03
390,31	8,2006E-03
390,68	-2,3956E-04
391,05	-4,5606E-03
391,42	5,9517E-03
391,79	-5,9849E-03
392,16	4,7878E-04
392,53	-5,8288E-03
392,90	1,7189E-03
393,27	-3,3369E-03
393,63	3,1590E-03
394,00	5,3165E-03
394,37	3,9736E-03
394,74	8,6242E-03
395,11	8,7160E-03
395,48	1,0409E-02
395,85	9,5880E-03
396,22	7,7442E-03
396,58	1,1737E-02
396,95	5,6963E-03
397,32	7,0526E-03
397,69	-8,8914E-04
398,06	3,9832E-03
398,43	7,1680E-04
398,80	5,4772E-03
399,16	-4,3643E-04
399,53	7,3237E-03
399,90	7,6631E-03
400,27	4,3826E-03
400,64	1,2182E-02
401,01	-1,3708E-03
401,37	1,3645E-02
401,74	1,1221E-02
402,11	1,2618E-02
402,48	4,2833E-03
402,85	3,8639E-03
403,22	4,5558E-03
403,58	3,3731E-03
403,95	8,5012E-03
404,32	4,7276E-03
404,69	9,9581E-03
405,06	-5,1167E-03
405,42	1,9228E-04
405,79	3,9927E-03
406,16	3,6814E-03
406,53	8,9378E-03
406,89	-9,8292E-04
407,26	6,8241E-03
407,63	7,3648E-03
408,00	-5,7897E-04
408,37	2,4401E-03
408,73	4,7018E-03
409,10	4,3871E-03
409,47	2,4377E-03
409,84	1,4869E-02
410,20	6,2693E-03
410,57	4,3347E-03
410,94	4,8570E-03
411,31	8,4217E-03
411,67	1,0261E-02
412,04	8,5440E-03
412,41	8,8588E-03
412,77	7,6985E-03
413,14	1,6552E-02
413,51	1,3018E-02
413,88	9,3230E-03
414,24	8,3695E-03
414,61	1,4192E-02
414,98	1,1196E-02
415,34	8,4815E-03
415,71	1,3837E-02
416,08	1,3650E-02
416,45	1,7256E-02
416,81	1,9568E-02
417,18	2,0962E-02
417,55	2,4058E-02
417,91	2,6327E-02
418,28	3,5600E-02
418,65	3,2506E-02
419,01	3,1225E-02
419,38	3,5771E-02
419,75	4,3399E-02
420,11	4,4945E-02
420,48	5,0103E-02
420,85	4,6174E-02
421,21	5,2419E-02
421,58	6,4712E-02
421,95	6,2988E-02
422,31	7,8187E-02
422,68	8,0705E-02
423,05	8,6732E-02
423,41	9,0937E-02
423,78	9,7545E-02
424,15	1,0565E-01
424,51	1,2171E-01
424,88	1,3106E-01
425,24	1,3645E-01
425,61	1,4704E-01
425,98	1,5136E-01
426,34	1,7406E-01
426,71	1,8059E-01
427,07	1,9366E-01
427,44	2,1358E-01
427,81	2,1726E-01
428,17	2,3995E-01
428,54	2,4763E-01
428,90	2,4971E-01
429,27	2,9238E-01
429,64	2,9298E-01
430,00	3,3804E-01
430,37	3,4854E-01
430,73	3,6518E-01
431,10	3,7161E-01
431,46	4,0860E-01
431,83	4,5030E-01
432,20	4,7257E-01
432,56	4,9879E-01
432,93	5,4371E-01
433,29	5,8813E-01
433,66	6,2344E-01
434,02	6,4766E-01
434,39	7,4266E-01
434,75	7,5444E-01
435,12	9,0420E-01
435,49	9,1986E-01
435,85	9,6899E-01
436,22	1,0515E00
436,58	1,1152E00
436,95	1,1913E00
437,31	1,2832E00
437,68	1,2873E00
438,04	1,4997E00
438,41	1,5231E00
438,77	1,6206E00
439,14	1,6794E00
439,50	1,8313E00
439,87	1,8643E00
440,23	1,9871E00
440,60	2,0917E00
440,96	2,0773E00
441,33	2,2581E00
441,69	2,2287E00
442,06	2,5042E00
442,42	2,6457E00
442,78	2,6188E00
443,15	2,7522E00
443,51	2,7792E00
443,88	2,8653E00
444,24	2,9039E00
444,61	3,0126E00
444,97	3,0868E00
445,34	3,0890E00
445,70	3,2634E00
446,07	3,1670E00
446,43	3,1819E00
446,79	3,3936E00
447,16	3,2518E00
447,52	3,2856E00
447,89	3,4467E00
448,25	3,3186E00
448,62	3,3590E00
448,98	3,3360E00
449,34	3,4691E00
449,71	3,3401E00
450,07	3,2337E00
450,44	3,2281E00
450,80	3,3363E00
451,16	3,1790E00
451,53	3,1446E00
451,89	3,1286E00
452,25	3,1213E00
452,62	2,9899E00
452,98	2,9650E00
453,35	2,9224E00
453,71	2,8812E00
454,07	2,8030E00
454,44	2,7245E00
454,80	2,7150E00
455,16	2,5444E00
455,53	2,5618E00
455,89	2,4660E00
456,25	2,3645E00
456,62	2,3495E00
456,98	2,2130E00
457,34	2,1883E00
457,71	2,1378E00
458,07	2,0673E00
458,43	1,9547E00
458,80	1,8599E00
459,16	1,7825E00
459,52	1,7367E00
459,89	1,6837E00
460,25	1,6045E00
460,61	1,5199E00
460,98	1,4888E00
461,34	1,4935E00
461,70	1,4140E00
462,07	1,3626E00
462,43	1,3435E00
462,79	1,2769E00
463,15	1,2259E00
463,52	1,2299E00
463,88	1,1975E00
464,24	1,1434E00
464,61	1,1234E00
464,97	1,0853E00
465,33	1,0827E00
465,69	1,0372E00
466,06	9,7990E-01
466,42	9,6224E-01
466,78	9,3650E-01
467,14	8,8821E-01
467,51	8,5705E-01
467,87	8,2399E-01
468,23	7,9743E-01
468,59	7,6789E-01
468,95	7,2796E-01
469,32	7,1654E-01
469,68	6,7805E-01
470,04	6,6388E-01
470,40	6,2153E-01
470,77	5,9471E-01
471,13	5,6110E-01
471,49	5,3674E-01
471,85	5,0755E-01
472,21	4,8570E-01
472,58	4,7783E-01
472,94	4,3342E-01
473,30	4,2579E-01
473,66	3,9360E-01
474,02	3,7638E-01
474,39	3,5968E-01
474,75	3,2719E-01
475,11	3,2136E-01
475,47	3,0068E-01
475,83	2,8791E-01
476,19	2,7249E-01
476,56	2,5080E-01
476,92	2,3767E-01
477,28	2,1334E-01
477,64	2,0704E-01
478,00	1,9195E-01
478,36	1,8380E-01
478,72	1,7350E-01
479,09	1,5251E-01
479,45	1,5099E-01
479,81	1,4037E-01
480,17	1,3238E-01
480,53	1,2405E-01
480,89	1,1366E-01
481,25	1,0526E-01
481,61	1,0362E-01
481,97	9,6685E-02
482,34	9,2023E-02
482,70	8,4779E-02
483,06	7,9867E-02
483,42	7,0119E-02
483,78	7,1736E-02
484,14	6,4678E-02
484,50	6,5810E-02
484,86	5,7304E-02
485,22	5,9549E-02
485,58	5,3656E-02
485,94	4,8974E-02
486,31	4,6809E-02
486,67	4,2153E-02
487,03	3,9708E-02
487,39	3,8580E-02
487,75	3,3884E-02
488,11	3,2730E-02
488,47	2,9569E-02
488,83	2,7172E-02
489,19	2,5200E-02
489,55	2,3489E-02
489,91	2,2686E-02
490,27	1,8848E-02
490,63	1,7480E-02
490,99	1,6098E-02
491,35	1,5658E-02
491,71	1,4717E-02
492,07	1,3598E-02
492,43	1,1872E-02
492,79	9,8419E-03
493,15	9,7823E-03
493,51	6,5866E-03
493,87	9,6207E-03
494,23	7,6962E-03
494,59	6,9776E-03
494,95	7,9746E-03
495,31	5,6503E-03
495,67	6,0511E-03
496,03	6,5637E-03
496,39	4,6744E-03
496,75	5,6130E-03
497,11	3,0338E-03
497,47	3,1824E-03
497,83	3,6360E-03
498,19	3,2550E-03
498,55	2,4908E-03
498,91	2,2449E-03
499,27	4,1776E-03
499,63	2,5780E-03
499,98	1,3571E-03
500,34	3,7029E-03
500,70	6,2479E-04
501,06	1,7231E-03
501,42	2,1502E-03
501,78	3,0779E-03
502,14	1,8334E-03
502,50	2,2616E-03
502,86	1,9969E-03
503,22	9,9305E-04
503,58	1,9425E-03
503,94	1,0375E-03
504,29	1,6750E-03
504,65	1,0666E-03
505,01	2,3483E-03
505,37	1,2993E-03
505,73	1,2610E-03
506,09	7,5046E-04
506,45	2,6827E-03
506,81	1,8842E-03
507,16	1,6754E-03
507,52	1,2820E-03
507,88	9,6554E-04
508,24	1,3773E-03
508,60	1,4178E-03
508,96	1,7229E-03
509,32	9,0841E-04
509,67	2,3661E-03
510,03	-4,5888E-05
510,39	5,0081E-04
510,75	1,0426E-03
511,11	2,8159E-03
511,47	4,4894E-04
511,82	2,8400E-03
512,18	1,2244E-03
512,54	-1,0414E-03
512,90	-1,8120E-04
513,26	1,1481E-03
513,61	-4,9669E-04
513,97	8,9390E-05
514,33	3,1535E-04
514,69	4,1264E-04
515,05	8,6418E-04
515,40	2,7112E-04
515,76	1,2112E-03
516,12	-9,0908E-05
516,48	6,8050E-04
516,83	4,1270E-04
517,19	-1,5273E-03
517,55	-1,1276E-03
517,91	1,2971E-03
518,26	1,3675E-04
518,62	-1,2127E-03
518,98	5,3860E-04
519,34	6,3778E-04
519,69	8,5934E-04
520,05	9,0401E-05
520,41	5,8368E-04
520,77	-4,5023E-05
521,12	8,1906E-04
521,48	1,4568E-03
521,84	-4,5792E-05
522,19	4,5226E-05
522,55	5,8229E-04
522,91	-1,3524E-03
523,27	8,9442E-04
523,62	-1,3720E-04
523,98	1,3171E-03
524,34	9,4032E-04
524,69	5,9943E-04
525,05	1,8348E-04
525,41	4,9484E-04
525,76	-1,8186E-04
526,12	-3,6454E-04
526,48	2,2792E-04
526,83	2,7285E-04
527,19	-6,6852E-04
527,55	-2,7160E-04
527,90	-1,3393E-04
528,26	2,4674E-03
528,62	-1,2999E-03
528,97	0,0000E00
529,33	9,9535E-04
529,69	1,2581E-03
530,04	8,9103E-05
530,40	1,1350E-03
530,76	-1,3344E-04
531,11	3,5512E-04
531,47	1,9307E-03
531,82	8,9543E-05
532,18	0,0000E00
532,54	1,1552E-03
532,89	-2,6597E-04
533,25	1,5227E-03
533,60	3,9736E-04
533,96	1,7355E-03
534,32	9,7493E-04
534,67	2,4832E-03
535,03	5,7786E-04
535,38	9,4156E-04
535,74	-2,6396E-04
536,10	-4,8791E-04
536,45	3,5175E-04
536,81	-7,0392E-04
537,16	2,6437E-04
537,52	1,8003E-03
537,87	1,2446E-03
538,23	1,4450E-03
538,58	2,3412E-03
538,94	1,6622E-03
539,30	1,1726E-03
539,65	5,1392E-04
540,01	5,7263E-04
540,36	1,5993E-03
540,72	-2,5960E-04
541,07	2,9857E-04
541,43	5,5172E-04
541,78	4,7694E-04
542,14	6,8466E-04
542,49	-1,7268E-04
542,85	-2,5814E-04
543,20	3,8487E-04
543,56	1,1363E-03
543,91	0,0000E00
544,27	3,8594E-04
544,62	1,2769E-03
544,98	9,8648E-04
545,33	2,1632E-03
545,69	1,6339E-03
546,04	7,5672E-04
546,40	-1,8754E-03
546,75	4,2180E-05
547,10	8,4931E-04
547,46	1,1941E-03
547,81	-5,5455E-04
548,17	-2,9458E-04
548,52	-5,4791E-04
548,88	1,1390E-03
549,23	2,1103E-04
549,59	9,3133E-04
549,94	-4,6049E-04
550,29	-4,2119E-05
550,65	9,6873E-04
551,00	7,6092E-04
551,36	5,4764E-04
551,71	-5,4405E-04
552,06	4,1780E-05
552,42	4,2375E-05
552,77	8,0311E-04
553,13	1,2088E-03
553,48	1,4368E-03
553,83	-8,1327E-04
554,19	1,6789E-04
554,54	-2,5335E-04
554,90	-1,2691E-04
555,25	-4,2040E-05
555,60	3,3985E-04
555,96	-5,0725E-04
556,31	7,1900E-04
556,66	4,2419E-04
557,02	-4,2645E-05
557,37	1,8250E-03
557,72	-8,5263E-04
558,08	3,8233E-04
558,43	1,0169E-03
558,79	1,1576E-03
559,14	-6,3593E-04
559,49	8,5150E-04
559,85	9,4363E-04
560,20	5,9922E-04
560,55	-6,4117E-04
560,90	1,1196E-03
561,26	-5,2130E-04
561,61	2,5932E-04
561,96	2,1372E-03
562,32	-4,3432E-04
562,67	1,7442E-04
563,02	1,2131E-03
563,38	-5,1887E-04
563,73	-9,6626E-04
564,08	3,1976E-03
564,43	2,6513E-03
564,79	6,1991E-04
565,14	1,5066E-03
565,49	3,5170E-04
565,84	8,7777E-04
566,20	8,9004E-05
566,55	-2,2300E-04
566,90	-3,9988E-04
567,25	-4,4649E-04
567,61	-8,9532E-04
567,96	1,3468E-04
568,31	-6,3216E-04
568,66	-1,5710E-03
569,02	-5,4671E-04
569,37	-6,7827E-04
569,72	-6,8010E-04
570,07	4,0713E-04
570,42	4,9854E-04
570,78	9,5257E-04
571,13	-1,8314E-04
571,48	1,2342E-03
571,83	5,0526E-04
572,18	-1,4255E-03
572,54	5,9371E-04
572,89	1,8105E-03
573,24	-1,8567E-04
573,59	2,0097E-03
573,94	-8,7311E-04
574,30	1,0139E-03
574,65	6,9228E-04
575,00	2,3467E-03
575,35	2,2011E-03
575,70	1,4392E-03
576,05	0,0000E00
576,40	8,7950E-04
576,76	-6,9278E-04
577,11	1,3102E-03
577,46	-2,3236E-04
577,81	1,3500E-03
578,16	-1,8639E-04
578,51	1,1214E-03
578,86	-4,6415E-05
579,21	4,1895E-04
579,57	6,1735E-04
579,92	9,8007E-04
580,27	-6,6146E-04
580,62	5,2341E-04
580,97	1,0799E-03
581,32	1,3129E-03
581,67	1,2295E-03
582,02	-7,0623E-04
582,37	-8,4818E-04
582,72	7,5099E-04
583,08	-4,2840E-04
583,43	-8,0878E-04
583,78	-2,3927E-04
584,13	8,0520E-04
584,48	3,7956E-04
584,83	-6,2360E-04
585,18	6,6240E-04
585,53	-4,7379E-05
585,88	1,0459E-03
586,23	-6,7338E-04
586,58	-4,7723E-05
586,93	1,4673E-03
587,28	7,6826E-04
587,63	1,9040E-04
587,98	9,5658E-04
588,33	-9,5865E-05
588,68	9,6174E-04
589,03	8,1220E-04
589,38	9,0988E-04
589,73	1,2042E-03
590,08	-4,7969E-04
590,43	1,0040E-03
590,78	5,2649E-04
591,13	1,1017E-03
591,48	5,2400E-04
591,83	-1,5705E-03
592,18	-1,7812E-03
592,53	-1,3978E-03
592,88	0,0000E00
593,23	3,8754E-04
593,58	-4,3333E-04
593,93	7,3013E-04
594,28	6,2404E-04
594,63	-6,3005E-04
594,98	4,3215E-04
595,33	-1,5987E-03
595,68	2,9127E-04
596,02	-2,4303E-04
596,37	7,7687E-04
596,72	-3,4047E-04
597,07	2,4501E-04
597,42	-4,3916E-04
597,77	2,9394E-04
598,12	-2,9349E-04
598,47	1,5336E-03
598,82	-9,8559E-05
599,17	3,9392E-04
599,52	-2,4815E-04
599,86	3,4788E-04
600,21	-7,9114E-04
600,56	-6,0095E-04
600,91	-2,4858E-04
601,26	8,9776E-04
601,61	2,5023E-04
601,96	1,0508E-03
602,30	5,9818E-04
602,65	2,0067E-04
603,00	1,8670E-03
603,35	8,5732E-04
603,70	1,8172E-03
604,05	3,0520E-04
604,40	-3,0618E-04
604,74	-3,0224E-04
605,09	8,6320E-04
605,44	-5,1286E-05
605,79	5,0865E-05
606,14	-9,2720E-04
606,48	2,0448E-04
606,83	3,5965E-04
607,18	-8,8089E-04
607,53	3,6426E-04
607,88	-1,4980E-03
608,22	1,3534E-03
608,57	2,7666E-03
608,92	0,0000E00
609,27	2,0988E-04
609,62	1,2671E-03
609,96	8,4349E-04
610,31	7,3937E-04
610,66	7,4327E-04
611,01	1,5358E-03
611,35	-2,1371E-04
611,70	-5,3797E-04
612,05	2,6735E-03
612,40	9,7177E-04
612,74	5,3812E-05
613,09	-4,3169E-04
613,44	-4,3421E-04
613,79	3,2622E-04
614,13	2,9319E-03
614,48	-1,0873E-04
614,83	-5,4577E-05
615,17	1,4709E-03
615,52	-6,5977E-04
615,87	-1,5547E-03
616,22	6,0999E-04
616,56	-7,2363E-04
616,91	1,6737E-04
617,26	-2,2346E-04
617,60	3,9207E-04
617,95	-1,4623E-03
618,30	1,4194E-03
618,64	1,7873E-03
618,99	-1,6939E-04
619,34	3,3993E-04
619,68	1,3653E-03
620,03	-1,1951E-03
620,38	2,8515E-04
620,72	-6,7819E-04
621,07	9,1575E-04
621,42	1,7131E-03
621,76	-4,5984E-04
622,11	-8,0377E-04
622,45	-6,3735E-04
622,80	1,4473E-03
623,15	-1,7480E-04
623,49	2,3312E-04
623,84	1,1749E-04
624,18	1,7598E-04
624,53	-3,5278E-04
624,88	1,7555E-04
625,22	-1,7701E-04
625,57	-3,5100E-04
625,91	-1,0035E-03
626,26	1,1339E-03
626,61	8,8606E-04
626,95	1,8997E-03
627,30	-1,3141E-03
627,64	-1,1361E-03
627,99	2,2171E-03
628,33	1,5552E-03
628,68	7,7634E-04
629,03	4,2133E-04
629,37	-4,2269E-04
629,72	6,0806E-05
630,06	7,8472E-04
630,41	5,4741E-04
630,75	-3,6708E-04
631,10	4,8714E-04
631,44	-3,0639E-04
631,79	1,0406E-03
632,13	1,8438E-03
632,48	2,0744E-03
632,82	5,5551E-04
633,17	-6,2372E-05
633,51	5,5536E-04
633,86	-5,5554E-04
634,20	6,8052E-04
634,55	6,8102E-04
634,89	2,0834E-03
635,24	-1,2555E-04
635,58	1,8185E-03
635,93	0,0000E00
636,27	-1,1976E-03
636,62	6,2342E-05
636,96	-6,8545E-04
637,30	-4,4277E-04
637,65	1,5871E-03
637,99	2,5376E-03
638,34	6,3023E-04
638,68	1,2706E-03
639,03	-3,1564E-04
639,37	3,1126E-03
639,71	5,7052E-04
640,06	7,0265E-04
640,40	-1,2805E-03
640,75	2,2349E-03
641,09	-2,5718E-04
641,44	2,3119E-03
641,78	-5,7542E-04
642,12	1,2298E-03
642,47	-1,3522E-03
642,81	-6,4661E-05
643,15	-7,1081E-04
643,50	-2,9811E-03
643,84	-1,1081E-03
644,19	-6,5487E-05
644,53	-1,9073E-03
644,87	-2,8776E-03
645,22	-4,6028E-04
645,56	-6,5386E-04
645,90	-3,2888E-04
646,25	2,2483E-03
646,59	1,0663E-03
646,93	-1,9879E-04
647,28	-7,2913E-04
647,62	-9,9587E-04
647,96	-2,0045E-03
648,31	-7,3168E-04
648,65	-5,3785E-04
648,99	-2,9621E-03
649,34	-8,8748E-04
649,68	-1,3457E-04
650,02	-1,3422E-04
650,36	-6,0704E-04
650,71	2,3006E-03
651,05	1,3414E-04
651,39	-6,7921E-05
651,74	9,6231E-04
652,08	1,4447E-03
652,42	1,1657E-03
652,76	5,5273E-04
653,11	-1,3788E-04
653,45	1,6610E-03
653,79	2,0773E-03
654,13	2,2805E-03
654,48	6,2500E-04
654,82	1,9557E-03
655,16	1,0519E-03
655,50	3,0998E-03
655,85	-5,6740E-04
656,19	2,1029E-04
656,53	3,5273E-04
656,87	-1,4181E-04
657,21	-1,4202E-04
657,56	-1,5014E-03
657,90	-2,1360E-03
658,24	-1,4398E-04
658,58	5,0096E-04
658,92	-1,2122E-03
659,27	9,3089E-04
659,61	-1,9436E-03
659,95	2,1543E-04
660,29	5,8007E-04
660,63	1,3899E-03
660,97	6,5201E-04
661,32	-1,0186E-03
661,66	8,7868E-04
662,00	2,4076E-03
662,34	-5,1620E-04
662,68	2,9461E-03
663,02	5,8948E-04
663,37	1,3246E-03
663,71	5,9387E-04
664,05	-5,2252E-04
664,39	3,7505E-04
664,73	1,5016E-04
665,07	-4,5200E-04
665,41	1,2050E-03
665,75	5,2823E-04
666,09	3,7810E-04
666,44	-1,2199E-03
666,78	-1,2980E-03
667,12	9,1327E-04
667,46	-3,8478E-04
667,80	3,0663E-03
668,14	-1,5510E-04
668,48	4,6122E-04
668,82	2,3377E-04
669,16	-1,3338E-03
669,50	1,3916E-03
669,84	5,4900E-04
670,18	1,4167E-03
670,52	5,4992E-04
670,86	-1,3476E-03
671,20	-1,0343E-03
671,54	0,0000E00
671,88	-4,8239E-04
672,22	1,7323E-03
672,57	4,8140E-04
672,91	1,7729E-03
673,25	1,4491E-03
673,59	-2,1983E-03
673,93	1,6254E-03
674,27	5,6924E-04
674,61	8,2151E-05
674,95	1,0595E-03
675,28	2,3905E-03
675,62	-6,5826E-04
675,96	2,7652E-03
676,30	2,0738E-03
676,64	-1,4024E-03
676,98	-1,7484E-03
677,32	-8,4658E-04
677,66	-1,7060E-03
678,00	1,6002E-03
678,34	3,1119E-03
678,68	3,3835E-04
679,02	8,5195E-05
679,36	-3,4162E-04
679,70	6,0374E-04
680,04	-8,5755E-04
680,38	8,5340E-05
680,72	8,7349E-05
681,06	8,7038E-05
681,39	1,7265E-03
681,73	2,6129E-04
682,07	-6,1721E-04
682,41	1,4145E-03
682,75	-9,7492E-04
683,09	2,7170E-03
683,43	4,4331E-04
683,77	1,8642E-03
684,11	-2,4068E-03
684,44	-2,5046E-03
684,78	-3,1286E-03
685,12	-7,1617E-04
685,46	2,1539E-03
685,80	1,1749E-03
686,14	-5,3997E-04
686,48	-9,9919E-04
686,81	1,9088E-03
687,15	4,3909E-03
687,49	2,4803E-03
687,83	9,1244E-04
688,17	6,5117E-04
688,51	2,8771E-03
688,84	2,4320E-03
689,18	1,1110E-03
689,52	-9,3648E-04
689,86	1,1214E-03
690,20	0,0000E00
690,53	-9,5163E-05
690,87	1,2173E-03
691,21	4,7454E-04
691,55	6,2024E-03
691,88	1,5212E-03
692,22	2,0179E-03
692,56	-1,3421E-03
692,90	-2,1989E-03
693,23	-3,5648E-03
693,57	-1,4464E-03
693,91	-1,9300E-03
694,25	-1,9407E-03
694,58	-3,9058E-04
694,92	-5,9099E-04
695,26	9,7463E-04
695,60	4,9138E-04
695,93	5,0851E-03
696,27	9,7542E-05
696,61	2,1805E-03
696,94	7,9061E-04
697,28	-1,7767E-03
697,62	9,8585E-05
697,96	-2,0077E-04
698,29	9,8894E-05
698,63	-4,0208E-04
698,97	1,9193E-03
699,30	3,0052E-04
699,64	4,0644E-04
699,98	-6,0261E-04
700,31	1,1156E-03
700,65	-1,4136E-03
700,99	-1,3242E-03
701,32	6,0983E-04
701,66	-1,9378E-03
702,00	-3,1638E-03
702,33	-1,2287E-03
702,67	4,0878E-04
703,00	8,3399E-04
703,34	1,6411E-03
703,68	-9,3256E-04
704,01	1,0442E-03
704,35	-2,0893E-04
704,69	9,3476E-04
705,02	7,3318E-04
705,36	-2,6112E-03
705,69	-1,1509E-03
706,03	-3,3608E-03
706,36	5,0626E-03
706,70	-1,3700E-03
707,04	-1,4639E-03
707,37	6,3064E-04
707,71	4,1229E-03
708,04	-7,4594E-04
708,38	2,0164E-03
708,71	4,1921E-04
709,05	-8,5401E-04
709,39	3,6393E-03
709,72	9,6422E-04
710,06	3,7784E-03
710,39	-1,4108E-03
710,73	-5,4250E-04
711,06	-3,2495E-04
711,40	1,9466E-03
711,73	-5,4416E-04
712,07	3,0359E-03
712,40	5,4567E-03
712,74	-2,1901E-04
713,07	1,0974E-03
713,41	-1,0982E-03
713,74	3,8309E-03
714,08	-2,2074E-03
714,41	-3,2107E-03
714,75	1,5452E-03
715,08	4,2764E-03
715,42	2,2168E-03
715,75	4,1416E-03
716,08	-5,4746E-03
716,42	-6,6664E-04
716,75	5,6193E-04
717,09	1,3481E-03
717,42	1,1301E-04
717,76	-3,2637E-03
718,09	-4,4141E-03
718,43	-5,7740E-03
718,76	-3,0841E-03
719,09	-1,2581E-03
719,43	-2,2688E-04
719,76	2,6201E-03
720,10	-2,2944E-04
720,43	3,4229E-04
720,76	2,1841E-03
721,10	-1,2580E-03
721,43	0,0000E00
721,76	2,9251E-03
722,10	-1,1627E-03
722,43	-2,6740E-03
722,77	3,4815E-04
723,10	0,0000E00
723,43	-3,8588E-03
723,77	-1,9951E-03
724,10	-4,5602E-03
724,43	1,2999E-03
724,77	2,4881E-03
725,10	8,2886E-04
725,43	-7,1164E-04
725,77	-3,0936E-03
726,10	-4,0977E-03
726,43	-2,3850E-04
726,77	2,9168E-03
727,10	2,0578E-03
727,43	4,7962E-04
727,77	-2,6615E-03
728,10	-3,8850E-03
728,43	2,1908E-03
728,76	1,2241E-04
729,10	3,1740E-03
729,43	2,5660E-03
729,76	7,5611E-03
730,09	-4,9635E-04
730,43	2,2235E-03
730,76	-2,7287E-03
731,09	1,9729E-03
731,42	1,7516E-03
731,76	2,9849E-03
732,09	-2,5039E-04
732,42	-3,2448E-03
732,75	-2,8891E-03
733,09	-6,6128E-03
733,42	-5,1154E-04
733,75	2,0305E-03
734,08	-1,4134E-03
734,41	4,9967E-03
734,75	1,2745E-03
735,08	1,4207E-03
735,41	1,6707E-03
735,74	3,5221E-03
736,07	4,4450E-03
736,41	-1,5688E-03
736,74	9,2157E-04
737,07	-2,6209E-04
737,40	3,8145E-03
737,73	1,0558E-03
738,06	4,1018E-03
738,40	1,3190E-04
738,73	-2,6464E-03
739,06	1,2001E-03
739,39	4,0515E-04
739,72	2,0491E-03
740,05	2,1603E-03
740,38	-4,0557E-04
740,72	9,5148E-04
741,05	1,3694E-03
741,38	-5,4552E-04
741,71	1,2474E-03
742,04	1,3849E-04
742,37	-5,5392E-04
742,70	-4,5645E-03
743,03	-4,5787E-03
743,36	5,6135E-04
743,69	3,3630E-03
744,02	-2,6763E-03
744,36	-1,7037E-03
744,69	4,8371E-03
745,02	2,0020E-03
745,35	-5,5929E-03
745,68	3,0118E-03
746,01	-1,7197E-03
746,34	8,6730E-04
746,67	1,0248E-03
747,00	-1,0155E-03
747,33	-8,8216E-04
747,66	5,1420E-03
747,99	-1,4657E-04
748,32	1,6226E-03
748,65	1,0438E-03
748,98	4,4487E-04
749,31	7,4819E-04
749,64	-3,7667E-03
749,97	-6,0748E-04
750,30	-1,2167E-03
750,63	1,2102E-03
750,96	6,5308E-03
751,29	-2,4367E-03
751,62	-1,5265E-03
751,95	3,8758E-03
752,28	2,9203E-03
752,61	-5,1257E-03
752,94	2,0238E-03
753,27	2,1882E-03
753,60	-7,4295E-03
753,92	-5,8022E-03
754,25	-1,9003E-03
754,58	-1,1032E-03
754,91	0,0000E00
755,24	4,6253E-03
755,57	-3,8407E-03
755,90	-5,7932E-03
756,23	1,7760E-03
756,56	-6,4117E-04
756,89	0,0000E00
757,22	-3,2597E-03
757,54	2,1336E-03
757,87	6,6356E-04
758,20	4,8015E-03
758,53	2,1509E-03
758,86	4,8207E-03
759,19	4,1686E-03
759,52	2,3160E-03
759,84	1,1787E-03
760,17	1,3436E-03
760,50	1,3551E-03
760,83	-1,8828E-03
761,16	-3,6837E-03
761,49	-1,7177E-03
761,81	3,2926E-03
762,14	1,2294E-03
762,47	0,0000E00
762,80	-9,1737E-03
763,13	-1,9134E-03
763,45	-4,0459E-03
763,78	0,0000E00
764,11	4,7588E-03
764,44	8,8755E-04
764,77	3,0013E-03
765,09	-1,4371E-03
765,42	5,3924E-03
765,75	1,4477E-03
766,08	-6,8643E-03
766,40	-1,8270E-03
766,73	-3,2746E-03
767,06	-3,2658E-03
767,39	-1,1111E-03
767,71	-1,1082E-03
768,04	-6,1424E-03
768,37	-4,4604E-03
768,70	5,5972E-03
769,02	-2,4200E-03
769,35	-2,2548E-03
769,68	-3,5894E-03
770,00	-2,8201E-03
770,33	4,0422E-03
770,66	0,0000E00
770,99	1,8967E-03
771,31	2,7077E-03
771,64	5,7655E-04
771,97	-2,1452E-03
772,29	-2,5066E-03
772,62	4,7263E-03
772,95	1,3748E-03
773,27	2,3777E-03
773,60	-9,8297E-04
773,93	-4,3011E-03
774,25	-2,9749E-03
774,58	4,3865E-03
774,90	-4,1639E-03
775,23	1,6061E-03
775,56	-1,6167E-03
775,88	-7,6494E-03
776,21	6,3047E-03
776,54	7,3386E-03
776,86	-5,0818E-03
777,19	-5,1329E-03
777,51	-3,9250E-03
777,84	-1,0339E-03
778,16	-3,7706E-03
778,49	6,2550E-03
778,82	-3,7663E-03
779,14	-6,2953E-03
779,47	-7,1543E-03
779,79	3,7934E-03
780,12	8,5400E-04
780,44	-8,4741E-04
780,77	-3,2100E-03
781,10	1,0759E-03
781,42	5,0052E-03
781,75	4,3233E-03
782,07	-1,5139E-03
782,40	-5,7061E-03
782,72	-2,8341E-03
783,05	6,1595E-03
783,37	9,0365E-03
783,70	2,2095E-03
784,02	1,1180E-03
784,35	2,4574E-03
784,67	4,7470E-03
785,00	1,3436E-03
785,32	5,4784E-03
785,65	-1,1408E-03
785,97	-1,3528E-03
786,30	-4,4004E-03
786,62	-3,8927E-03
786,94	2,7985E-03
787,27	2,0812E-03
787,59	-5,7906E-03
787,92	9,4139E-04
788,24	1,0433E-02
788,57	-2,3156E-03
788,89	-2,1130E-03
789,22	4,6548E-04
789,54	2,1085E-03
789,86	-1,6263E-03
790,19	-1,0742E-02
790,51	-1,1410E-02
790,84	-4,2124E-03
791,16	-4,9172E-03
791,48	-2,3440E-04
791,81	3,5034E-03
792,13	-4,2296E-03
792,45	1,8880E-03
792,78	-6,0960E-03
793,10	4,6848E-03
793,43	-1,8655E-03
793,75	7,7272E-03
794,07	1,1845E-03
794,40	2,3545E-04
794,72	6,0568E-03
795,04	-6,0918E-03
795,37	3,7384E-03
795,69	3,0666E-03
796,01	-6,0802E-03
796,34	-4,2474E-03
796,66	-9,7404E-03
796,98	2,3019E-04
797,30	-1,1628E-03
797,63	7,1684E-03
797,95	1,0003E-02
798,27	3,2758E-03
798,60	1,4000E-03
798,92	-7,2268E-03
799,24	2,5294E-03
799,56	2,5382E-03
799,89	-2,3332E-03
800,21	4,6228E-03
800,53	4,6703E-03
800,85	5,7888E-03
801,18	-5,3355E-03
801,50	2,0777E-03
801,82	5,8085E-03
802,14	-1,8499E-03
802,47	-2,3159E-03
802,79	-9,3081E-04
803,11	1,3921E-03
803,43	2,3080E-03
803,75	5,1013E-03
804,08	1,8655E-03
804,40	-7,2101E-03
804,72	-4,6689E-04
805,04	-7,4347E-03
805,36	-4,2314E-03
805,69	5,3453E-03
806,01	-4,6902E-04
806,33	-9,4065E-04
806,65	5,6921E-03
806,97	-1,1894E-03
807,29	9,7547E-03
807,62	-3,0674E-03
807,94	2,1184E-03
808,26	7,1649E-03
808,58	-5,4730E-03
808,90	-6,4545E-03
809,22	-2,9016E-03
809,54	1,9143E-03
809,86	7,4497E-03
810,18	3,1338E-03
810,51	-3,5984E-03
810,83	7,9883E-03
811,15	-4,1788E-03
811,47	-1,4563E-03
811,79	8,7491E-03
812,11	-2,4337E-04
812,43	4,3905E-03
812,75	-2,2274E-03
813,07	6,2530E-03
813,39	2,4937E-03
813,71	-2,4976E-03
814,03	0,0000E00
814,35	-1,4903E-03
814,67	-2,7226E-03
814,99	-4,5107E-03
815,31	-8,2637E-03
815,64	3,2901E-03
815,96	5,7579E-03
816,28	5,3417E-03
816,60	-6,8269E-03
816,92	3,3100E-03
817,24	-3,3302E-03
817,56	3,3077E-03
817,88	-3,3834E-03
818,19	1,7941E-03
818,51	-5,7159E-03
818,83	3,0785E-03
819,15	2,6009E-04
819,47	4,1950E-03
819,79	-7,8321E-04
820,11	-7,9157E-04
820,43	6,8342E-03
820,75	2,8769E-03
821,07	3,6876E-03
821,39	5,3372E-04
821,71	3,2166E-03
822,03	1,0741E-03
822,35	8,0857E-03
822,67	0,0000E00
822,99	8,2201E-04
823,31	2,7093E-03
823,62	-7,6769E-03
823,94	6,8054E-03
824,26	1,1037E-03
824,58	1,3825E-03
824,90	3,8917E-03
825,22	8,8712E-03
825,54	1,6842E-03
825,86	-7,5516E-03
826,17	7,2680E-03
826,49	8,5592E-03
826,81	-3,0967E-03
827,13	-6,2482E-03
827,45	3,6655E-03
827,77	0,0000E00
828,08	2,8695E-04
828,40	-8,3401E-03
828,72	-4,6001E-03
829,04	3,4509E-03
829,36	5,3025E-03
829,67	-1,7459E-03
829,99	-2,9567E-04
830,31	-1,7689E-03
830,63	-6,2675E-03
830,95	4,1582E-03
831,26	-5,7055E-03
831,58	-4,7610E-03
831,90	-2,9701E-03
832,22	-9,8924E-03
832,53	-2,1374E-03
832,85	-1,8479E-03
833,17	-1,8347E-03
833,49	-9,2252E-04
833,80	1,1407E-02
834,12	-4,0347E-03
834,44	4,6760E-03
834,76	1,2519E-03
835,07	8,1725E-03
835,39	0,0000E00
835,71	-4,3628E-03
836,02	9,6825E-03
836,34	-3,1349E-03
836,66	-9,8015E-03
836,97	1,1045E-02
837,29	-9,1907E-03
837,61	-7,9728E-03
837,93	-6,1980E-03
838,24	-1,7353E-02
838,56	-5,4336E-03
838,88	-1,0494E-02
839,19	-5,2430E-03
839,51	-3,9504E-03
839,82	-1,0205E-02
840,14	-1,6871E-02
840,46	9,8678E-04
840,77	-1,3337E-03
841,09	1,3292E-03
841,41	-3,3419E-04
841,72	-3,3373E-03
842,04	1,2059E-02
842,35	-6,6818E-03
842,67	-2,7028E-03
842,99	8,7956E-03
843,30	-1,1549E-02
843,62	1,0278E-03
843,93	1,1104E-02
844,25	-6,8240E-04
844,56	1,7406E-03
844,88	-1,0515E-03
845,20	-8,7008E-03
845,51	1,7453E-03
845,83	3,1725E-03
846,14	-3,8829E-03
846,46	-1,3976E-03
846,77	-2,1024E-03
847,09	-3,9845E-03
847,40	-4,6631E-03
847,72	4,7559E-03
848,03	1,4433E-03
848,35	-5,4726E-03
848,66	-8,4569E-03
848,98	5,1454E-03
849,29	2,5732E-03
849,61	1,2600E-02
849,92	1,1845E-02
850,24	3,7260E-04
850,55	-7,1298E-03
850,87	-2,2582E-03
851,18	7,5101E-03
851,50	2,2869E-03
851,81	-1,3552E-02
852,12	1,8968E-03
852,44	-3,7977E-03
852,75	8,5602E-03
853,07	1,2720E-02
853,38	9,0185E-03
853,70	6,5898E-03
854,01	8,1890E-03
854,32	1,1866E-02
854,64	6,4002E-03
854,95	-1,5508E-02
855,27	9,1883E-03
855,58	6,4040E-03
855,89	5,1633E-03
856,21	2,8364E-03
856,52	-3,2416E-03
856,83	9,8243E-03
857,15	1,2263E-03
857,46	4,0828E-04
857,77	2,0613E-03
858,09	0,0000E00
858,40	1,3684E-02
858,71	-2,4709E-03
859,03	-1,3797E-02
859,34	2,1192E-03
859,65	-6,2332E-03
859,97	-7,1425E-03
860,28	-5,1132E-03
860,59	-1,3198E-02
860,91	-6,4816E-03
861,22	-1,3301E-02
861,53	-4,3024E-04
861,84	6,0715E-03
862,16	-2,1959E-03
862,47	2,2004E-03
862,78	5,7363E-03
863,10	-1,7598E-03
863,41	4,4619E-03
863,72	-2,1064E-02
864,03	1,0204E-02
864,35	4,4675E-04
864,66	-9,0827E-03
864,97	2,2356E-03
865,28	4,1103E-03
865,59	1,8403E-03
865,91	-1,0664E-02
866,22	-2,2887E-03
866,53	1,2872E-02
866,84	-9,3613E-04
867,15	3,7682E-03
867,47	0,0000E00
867,78	1,6488E-02
868,09	-1,2220E-02
868,40	-7,5635E-03
868,71	2,8692E-03
869,02	1,6868E-02
869,34	-5,8321E-03
869,65	-5,8439E-03
869,96	1,9365E-03
870,27	-1,5270E-02
870,58	-9,7732E-04
870,89	-1,5425E-02
871,20	1,3889E-02
871,52	1,0078E-03
871,83	5,4996E-03
872,14	7,0536E-03
872,45	-1,0112E-03
872,76	-6,1718E-03
873,07	-1,5413E-03
873,38	-6,2017E-03
873,69	-7,6641E-03
874,00	-8,3841E-03
874,31	-6,7361E-03
874,62	4,1471E-03
874,94	2,1174E-03
875,25	-1,1022E-02
875,56	1,6144E-02
875,87	1,3716E-02
876,18	5,4165E-04
876,49	-1,4121E-02
876,80	1,2934E-02
877,11	5,3429E-04
877,42	2,2107E-02
877,73	3,8032E-03
878,04	1,4443E-02
878,35	-1,1049E-03
878,66	4,3645E-03
878,97	2,7616E-03
879,28	4,4360E-03
879,59	1,1753E-02
879,90	3,9268E-03
880,21	-1,0560E-02
880,52	1,0567E-02
880,83	1,6792E-03
881,14	8,3888E-03
881,45	-3,9236E-03
881,76	-5,5548E-04
882,07	-2,3385E-02
882,37	3,9491E-03
882,68	3,3288E-03
882,99	-2,0063E-02
883,30	-5,6226E-04
883,61	9,6808E-03
883,92	-1,6649E-03
884,23	5,6045E-04
884,54	1,1031E-03
884,85	-4,4806E-03
885,16	-1,1755E-02
885,47	-2,2990E-02
885,77	-1,8064E-02
886,08	0,0000E00
886,39	-1,9764E-02
886,70	3,3782E-03
887,01	-5,6374E-04
887,32	-1,2289E-02
887,63	1,1428E-03
887,93	-4,4706E-03
888,24	5,6407E-03
888,55	0,0000E00
888,86	2,8242E-03
889,17	1,1972E-02
889,47	-1,7486E-02
889,78	1,3592E-02
890,09	5,6354E-04
890,40	-9,6349E-03
890,71	5,6194E-04
891,01	2,2982E-02
891,32	1,2329E-02
891,63	-7,2997E-03
891,94	7,9575E-03
892,25	-1,0053E-02
892,55	5,6446E-04
892,86	0,0000E00
893,17	-1,3647E-02
893,48	-7,3428E-03
893,78	-3,3766E-03
894,09	1,6999E-03
894,40	-2,8223E-03
894,70	-9,1949E-03
895,01	-2,1597E-02
895,32	-7,3984E-03
895,63	5,6939E-03
895,93	-5,7442E-03
896,24	-7,4290E-03
896,55	6,8799E-03
896,85	-3,4575E-03
897,16	9,2400E-03
897,47	-1,7083E-02
897,77	1,7047E-03
898,08	-4,0231E-03
898,39	-5,7716E-03
898,69	-3,4831E-03
899,00	1,0557E-02
899,31	-2,9196E-03
899,61	2,5890E-02
899,92	-1,1622E-03
900,23	6,9839E-03
900,53	8,8194E-03
900,84	-1,1582E-03
901,14	7,6564E-03
901,45	-1,8527E-02
901,76	2,3246E-03
902,06	-5,9634E-03
902,37	1,7837E-03
902,67	-3,6005E-03
902,98	1,9121E-02
903,29	-4,7691E-03
903,59	1,1322E-02
903,90	-2,7400E-02
904,20	-1,3383E-02
904,51	9,5771E-03
904,81	-2,5554E-02
905,12	-3,0015E-03
905,42	6,1785E-04
905,73	-3,7386E-03
906,03	1,2194E-02
906,34	-1,7137E-02
906,64	6,1841E-04
906,95	-5,5549E-03
907,25	-2,0801E-02
907,56	-1,2665E-02
907,86	2,7234E-02
908,17	1,2761E-02
908,47	2,1200E-02
908,78	-2,5488E-03
909,08	1,6746E-02
909,39	-2,1344E-02
909,69	-2,6290E-03
910,00	7,2269E-03
910,30	-2,0722E-02
910,61	-3,9249E-03
910,91	-3,6857E-02
911,21	7,9798E-03
911,52	1,5692E-02
911,82	1,1518E-02
912,13	1,5309E-02
912,43	-3,3862E-02
912,74	5,4995E-03
913,04	4,1058E-03
913,34	2,7691E-03
913,65	-6,8092E-03
913,95	-2,1275E-03
914,25	-1,1930E-02
914,56	3,3864E-02
914,86	-1,7015E-02
915,17	-1,4376E-03
915,47	1,4985E-02
915,77	2,9355E-03
916,08	-5,7677E-03
916,38	4,2601E-03
916,68	1,0882E-02
916,99	-5,9124E-03
917,29	1,1126E-02
917,59	3,2787E-02
917,90	7,5097E-03
918,20	-3,1900E-02
918,50	-7,3425E-03
918,80	-6,7388E-03
919,11	5,2681E-03
919,41	-1,4500E-02
919,71	-1,1330E-02
920,02	-2,2131E-02
920,32	-1,1601E-02
920,62	8,6337E-03
920,92	2,5886E-02
921,23	1,1841E-02
921,53	1,5779E-03
921,83	-3,9582E-03
922,13	1,5432E-02
922,44	-1,4420E-02
922,74	-1,2125E-02
923,04	1,5510E-02
923,34	-8,1334E-03
923,64	-3,2430E-03
923,95	2,6472E-02
924,25	-1,4117E-02
924,55	3,3902E-03
924,85	1,0158E-02
925,15	-7,6462E-03
925,46	2,3604E-02
925,76	1,7075E-03
926,06	4,3418E-03
926,36	8,7523E-04
926,66	2,6157E-03
926,96	9,6017E-03
927,26	1,7750E-03
927,57	-7,0995E-03
927,87	6,3045E-03
928,17	-7,1770E-03
928,47	-2,7351E-02
928,77	-1,7185E-02
929,07	-9,2024E-03
929,37	-9,1270E-03
929,67	-4,0755E-02
929,98	-3,6966E-03
930,28	5,5720E-03
930,58	-1,9767E-02
930,88	-2,8876E-02
931,18	3,3633E-02
931,48	2,4880E-02
931,78	2,9103E-03
932,08	-2,8546E-02
932,38	2,7861E-02
932,68	0,0000E00
932,98	2,6953E-02
933,28	-3,9862E-03
933,58	7,0184E-03
933,88	6,0830E-03
934,18	-6,1770E-03
934,48	-6,1324E-03
934,78	1,0335E-03
935,08	8,2225E-03
935,38	-1,3237E-02
935,68	-2,0741E-02
935,98	1,3516E-02
936,28	1,0693E-02
936,58	3,5212E-02
936,88	1,3851E-02
937,18	-3,4210E-02
937,48	-8,7478E-03
937,78	0,0000E00
938,08	1,8811E-02
938,38	-1,5403E-02
938,68	2,4793E-02
938,98	9,1227E-03
939,28	2,2601E-02
939,57	1,1472E-02
939,87	-1,9363E-02
940,17	9,2791E-03
940,47	2,3449E-03
940,77	-2,9837E-02
941,07	-9,3689E-03
941,37	-3,6276E-02
941,67	1,6492E-02
941,97	3,6381E-03
942,26	3,6724E-03
942,56	1,2281E-02
942,86	1,9777E-02
943,16	2,7880E-02
943,46	1,0004E-02
943,76	1,8531E-02
944,06	1,6262E-02
944,35	2,6628E-02
944,65	5,1422E-03
944,95	1,6373E-02
945,25	9,1403E-03
945,55	-2,0424E-02
945,84	-2,5009E-02
946,14	3,8097E-02
946,44	-8,0757E-03
946,74	-1,8667E-02
947,03	-1,2305E-02
947,33	2,2823E-02
947,63	6,7126E-03
947,93	5,5451E-03
948,23	-2,8249E-02
948,52	3,1889E-02
948,82	-1,4137E-03
949,12	-5,6400E-03
949,41	-5,6941E-03
949,71	-3,2824E-02
950,01	1,4398E-03
950,31	1,3141E-02
950,60	-3,3410E-02
950,90	1,4594E-03
951,20	-3,6795E-02
951,49	-5,8621E-02
951,79	-4,9086E-02
952,09	1,4995E-02
952,38	-3,1516E-03
952,68	-4,0673E-02
952,98	-2,6931E-02
953,27	-1,5878E-02
953,57	-3,0733E-03
953,87	-6,0832E-03
954,16	9,3819E-03
954,46	8,0470E-03
954,76	7,7962E-03
955,05	-4,6957E-02
955,35	7,9826E-03
955,64	-1,3290E-02
955,94	1,6496E-02
956,24	1,1518E-02
956,53	9,9292E-03
956,83	1,3432E-02
957,12	4,3345E-02
957,42	-5,1136E-03
957,72	1,7073E-03
958,01	1,2052E-02
958,31	3,1757E-02
958,60	6,4953E-02
958,90	1,9305E-02
959,19	-5,1695E-02
959,49	-3,0315E-02
959,78	-2,7712E-02
960,08	1,9903E-02
960,37	3,7098E-03
960,67	-7,6034E-03
960,96	3,6712E-03
961,26	-5,0910E-02
961,55	3,8447E-03
961,85	-3,5540E-02
962,14	5,7181E-03
962,44	4,8074E-02
962,73	3,7814E-03
963,03	5,3338E-02
963,32	1,7748E-02
963,62	-6,6375E-02
963,91	-7,7502E-02
964,21	8,0503E-03
964,50	-3,8775E-02
964,80	-4,4928E-02
965,09	3,6678E-02
965,38	0,0000E00
965,68	-3,3626E-02
965,97	1,0302E-02
966,27	5,2984E-02
966,56	5,9941E-02
966,85	4,5344E-02
967,15	4,3247E-02
967,44	1,0774E-02
967,74	-5,2746E-02
968,03	3,3309E-02
968,32	-1,1206E-02
968,62	1,2116E-01
968,91	-5,1099E-02
969,20	-2,2466E-02
969,50	2,2913E-03
969,79	-2,9890E-02
970,08	-1,8861E-02
970,38	-4,0237E-02
970,67	-3,4116E-02
970,96	7,1782E-03
971,26	-2,8518E-02
971,55	-5,5289E-02
971,84	-1,7279E-02
972,13	-2,4324E-02
972,43	6,5100E-02
972,72	-2,5498E-02
973,01	-2,2603E-02
973,31	0,0000E00
973,60	-8,7716E-02
973,89	7,8963E-03
974,18	-2,1313E-02
974,48	-7,2702E-02
974,77	-8,1798E-03
975,06	1,0551E-02
975,35	2,6896E-03
975,64	-5,2176E-02
975,94	-3,0428E-02
976,23	1,0894E-01
976,52	0,0000E00
976,81	8,4432E-03
977,10	-2,5420E-02
977,40	0,0000E00
977,69	1,7451E-02
977,98	-9,5807E-02
978,27	-9,3797E-02
978,56	-7,4791E-02
978,86	1,2086E-02
979,15	-7,8161E-02
979,44	1,1484E-01
979,73	3,0976E-02
980,02	3,7353E-02
980,31	4,0992E-02
980,60	-6,2432E-03
980,89	-3,2991E-03
981,19	-2,2379E-02
981,48	8,6091E-02
981,77	1,9933E-02
982,06	1,6668E-02
982,35	-3,3509E-03
982,64	-4,7510E-02
982,93	7,8424E-02
983,22	-7,7215E-02
983,51	-3,8691E-02
983,80	-7,1284E-03
984,09	4,2900E-02
984,38	1,1854E-01
984,67	-7,0312E-03
984,96	-1,1792E-01
985,25	1,4422E-01
985,55	1,0984E-02
985,84	2,6328E-02
986,13	7,6982E-02
986,42	1,7032E-01
986,71	1,9107E-02
987,00	1,8984E-02
987,29	1,3798E-01
987,58	0,0000E00
987,86	-1,6089E-01
988,15	-3,4342E-02
988,44	1,4768E-01
988,73	8,9007E-02
989,02	1,0281E-01
989,31	-3,6333E-02
989,60	-1,4284E-01
989,89	-4,2335E-02
990,18	1,3341E-02
990,47	4,8406E-02
990,76	3,3339E-02
991,05	2,9853E-02
991,34	-2,1665E-01
991,63	-7,6736E-02
991,92	7,9906E-02
992,20	9,0046E-03
992,49	0,0000E00
992,78	2,2454E-02
993,07	9,3137E-02
993,36	-2,6195E-01
993,65	-1,2569E-01
993,94	-5,9624E-02
994,22	-3,0508E-02
994,51	2,9011E-02
994,80	-3,9918E-02
995,09	-5,1022E-02
995,38	1,6104E-02
995,67	-8,2216E-02
995,95	2,1817E-01
996,24	9,5794E-02
996,53	-1,1410E-01
996,82	4,2171E-02
997,11	1,2948E-01
997,39	1,6013E-02
997,68	4,8753E-02
997,97	-3,8489E-02
998,26	-1,7757E-02
998,54	8,3239E-02
998,83	-5,6563E-03
999,12	-1,2133E-01
999,41	-1,3416E-01
999,69	-1,9106E-01
999,98	-3,5499E-02
1000,27	2,2344E-01
1000,56	1,8103E-02
1000,84	-1,8167E-02
1001,13	1,3995E-01
1001,42	-1,2458E-02
1001,70	-2,9694E-01
1001,99	2,6058E-02
1002,28	-3,2941E-02
1002,56	-6,3596E-02
1002,85	2,5269E-02
1003,14	-1,0734E-01
1003,42	-2,7788E-01
1003,71	6,7517E-03
1004,00	-2,6671E-02
1004,28	-6,9109E-02
1004,57	-2,0537E-01
1004,86	5,7545E-02
1005,14	-2,7065E-01
1005,43	2,0967E-02
1005,72	6,4619E-02
1006,00	-1,4384E-02
1006,29	-8,7269E-02
1006,57	7,4878E-02
1006,86	7,9896E-02
1007,15	0,0000E00
1007,43	6,3539E-02
1007,72	-2,2788E-02
1008,00	7,9715E-03
1008,29	2,9011E-01
1008,57	2,2653E-01
1008,86	1,7352E-01
1009,14	9,4692E-02
1009,43	1,7793E-02
1009,71	-4,3755E-02
1010,00	-2,4349E-02
1010,29	2,0791E-01
1010,57	-2,0159E-01
1010,86	4,8037E-02
1011,14	-1,7723E-01
1011,43	2,7257E-02
1011,71	-1,8953E-01
1011,99	1,1241E-01
1012,28	3,9505E-01
1012,56	-3,9965E-01
1012,85	-1,6072E-01
1013,13	1,3914E-01
1013,42	-1,3747E-01
1013,70	3,0231E-02
1013,99	-3,2606E-02
1014,27	-5,8689E-01
1014,56	-3,3751E-01
1014,84	-6,3658E-02
1015,12	-6,4233E-02
1015,41	9,3841E-02
1015,69	-2,4276E-01
1015,98	-1,8683E-01
1016,26	-3,9501E-01
1016,54	-4,2282E-02
1016,83	-2,5407E-01
1017,11	3,9193E-01
1017,39	-6,9977E-02
1017,68	2,2377E-01
1017,96	-1,7479E-01
1018,25	-5,6169E-01
1018,53	-1,0830E-01
1018,81	4,9610E-02
1019,10	-3,8904E-01
1019,38	-1,2587E-01
1019,66	5,8518E-02
1019,94	3,7974E-01
1020,23	1,1100E-01
1020,51	6,5401E-02
1020,79	1,1334E-01
1021,08	0,0000E00
1021,36	-1,2511E-01
1021,64	-3,1494E-01
1021,93	-1,0468E-01
1022,21	1,5115E-01
1022,49	1,5115E-01
>>>>>End Processed Spectral Data<<<<<
