SpectraSuite Data File
++++++++++++++++++++++++++++++++++++
Date: Mon Jul 17 13:53:43 EEST 2023
User: mkilpela
Dark Spectrum Present: Yes
Reference Spectrum Present: No
Number of Sampled Component Spectra: 1
Spectrometers: JAZA2845
Integration Time (usec): 5000 (JAZA2845)
Spectra Averaged: 1 (JAZA2845)
Boxcar Smoothing: 0 (JAZA2845)
Correct for Electrical Dark: No (JAZA2845)
Strobe/Lamp Enabled: No (JAZA2845)
Correct for Detector Non-linearity: No (JAZA2845)
Correct for Stray Light: No (JAZA2845)
Number of Pixels in Processed Spectrum: 2048
>>>>>Begin Processed Spectral Data<<<<<
340,21	-0,0000E00
340,58	-0,0000E00
340,96	-0,0000E00
341,33	0,0000E00
341,70	0,0000E00
342,07	-0,0000E00
342,45	0,0000E00
342,82	-0,0000E00
343,19	-0,0000E00
343,57	-0,0000E00
343,94	0,0000E00
344,31	0,0000E00
344,68	0,0000E00
345,06	0,0000E00
345,43	-0,0000E00
345,80	-0,0000E00
346,18	-0,0000E00
346,55	-0,0000E00
346,92	-0,0000E00
347,29	-0,0000E00
347,67	-0,0000E00
348,04	0,0000E00
348,41	0,0000E00
348,78	0,0000E00
349,16	0,0000E00
349,53	0,0000E00
349,90	0,0000E00
350,27	3,0465E-01
350,64	-1,0410E00
351,02	-5,7704E-01
351,39	-5,3296E-02
351,76	3,2361E-01
352,13	-6,8018E-01
352,51	-8,4656E-02
352,88	1,1865E-01
353,25	1,6310E-01
353,62	-3,6989E-02
353,99	-5,9530E-02
354,37	-2,7474E-02
354,74	1,2856E-01
355,11	1,8823E-01
355,48	-2,2155E-01
355,85	-4,3498E-01
356,23	-3,9326E-01
356,60	2,9225E-01
356,97	1,1671E-01
357,34	1,3192E-01
357,71	1,4580E-01
358,08	4,1756E-02
358,46	-2,0384E-02
358,83	-1,2383E-01
359,20	-5,9091E-02
359,57	4,1273E-01
359,94	-3,3300E-02
360,31	1,8094E-01
360,69	-2,1127E-01
361,06	-3,3610E-01
361,43	-1,3057E-01
361,80	1,9639E-01
362,17	-1,7884E-01
362,54	-1,5440E-01
362,91	3,0334E-01
363,29	7,0173E-02
363,66	-1,1627E-01
364,03	9,7443E-02
364,40	-1,1498E01
364,77	-4,8453E-03
365,14	1,5680E-02
365,51	-1,2620E-01
365,88	4,3089E-01
366,26	2,1398E-01
366,63	4,6511E-02
367,00	-2,5774E-01
367,37	-4,3695E-02
367,74	3,7543E-01
368,11	3,0200E-01
368,48	-1,0378E00
368,85	1,2018E-01
369,22	-1,4574E-01
369,59	2,5501E-01
369,97	-2,7055E00
370,34	-2,2164E-01
370,71	-7,8908E-02
371,08	-2,0401E-01
371,45	-1,6623E-01
371,82	1,6825E-01
372,19	1,2040E-01
372,56	-2,9054E-02
372,93	5,0312E-01
373,30	1,3509E-01
373,67	-1,1517E-02
374,04	1,6369E-01
374,41	5,6843E-02
374,78	-1,1223E-01
375,15	-2,5193E-02
375,52	2,2848E-01
375,89	1,8714E-02
376,26	1,9839E-01
376,63	-5,0820E-02
377,00	-1,7546E-01
377,38	-1,1047E-01
377,75	-1,5221E-01
378,12	6,6343E-02
378,49	-1,6281E-01
378,86	1,7275E-02
379,23	2,3277E-02
379,60	1,7311E-01
379,97	2,1024E-01
380,34	0,0000E00
380,71	-2,9153E-01
381,08	1,2499E-01
381,45	1,8033E-01
381,82	-6,1723E-03
382,19	3,3640E-01
382,55	-7,3045E-02
382,92	-5,8376E-02
383,29	1,0732E-01
383,66	-3,5636E-02
384,03	9,4683E-02
384,40	1,6278E-01
384,77	1,4191E-02
385,14	7,7595E-02
385,51	2,0103E-01
385,88	1,0468E-01
386,25	1,4233E-02
386,62	1,0186E-01
386,99	6,9998E-02
387,36	9,8302E-02
387,73	8,3667E-02
388,10	-4,1900E-02
388,47	6,9829E-02
388,84	-1,3024E-01
389,21	1,1499E-02
389,58	3,3581E-02
389,94	2,1923E-02
390,31	8,0853E-02
390,68	4,5057E-03
391,05	5,3784E-02
391,42	1,1341E-02
391,79	1,1547E-01
392,16	-7,7811E-02
392,53	3,2622E-02
392,90	1,1729E-01
393,27	-3,0150E-02
393,63	-1,0426E-02
394,00	6,8544E-02
394,37	-1,7942E-01
394,74	-5,2185E-02
395,11	5,7201E-03
395,48	-1,8981E-02
395,85	3,0572E-01
396,22	8,1698E-02
396,58	2,2001E-01
396,95	7,1948E-02
397,32	-6,7489E-02
397,69	1,5264E-01
398,06	7,8643E-02
398,43	1,1390E-01
398,80	1,6375E-01
399,16	2,9582E-02
399,53	1,4772E-01
399,90	2,9810E-01
400,27	1,5520E-01
400,64	7,5631E-02
401,01	-5,5320E-02
401,37	2,2608E-01
401,74	1,7239E-01
402,11	1,7655E-01
402,48	2,2163E-02
402,85	1,2776E-01
403,22	2,0280E-01
403,58	1,9463E-01
403,95	3,2400E-01
404,32	1,1830E-01
404,69	1,7567E-01
405,06	1,1500E-01
405,42	3,9574E-02
405,79	6,4583E-02
406,16	7,1558E-02
406,53	7,4168E-02
406,89	-2,7960E-02
407,26	1,3699E-01
407,63	1,7614E-01
408,00	-2,5737E-02
408,37	2,1450E-01
408,73	1,8960E-01
409,10	1,6967E-01
409,47	2,3007E-01
409,84	3,7682E-02
410,20	2,9683E-01
410,57	1,5215E-01
410,94	1,9467E-01
411,31	1,5628E-01
411,67	2,1660E-01
412,04	2,4954E-01
412,41	3,7001E-01
412,77	2,9025E-01
413,14	2,8097E-01
413,51	2,4389E-01
413,88	2,8153E-01
414,24	3,3501E-01
414,61	4,7807E-01
414,98	3,9513E-01
415,34	4,9257E-01
415,71	5,4994E-01
416,08	5,3357E-01
416,45	6,3570E-01
416,81	6,0210E-01
417,18	8,4209E-01
417,55	9,2243E-01
417,91	9,0929E-01
418,28	1,0549E00
418,65	1,0691E00
419,01	1,1269E00
419,38	1,2263E00
419,75	1,3889E00
420,11	1,5162E00
420,48	1,5166E00
420,85	1,7236E00
421,21	1,8065E00
421,58	2,1003E00
421,95	2,1093E00
422,31	2,4559E00
422,68	2,8323E00
423,05	3,0370E00
423,41	3,1585E00
423,78	3,2298E00
424,15	3,5185E00
424,51	3,5622E00
424,88	3,9958E00
425,24	4,5545E00
425,61	4,5129E00
425,98	5,2236E00
426,34	5,2656E00
426,71	5,2964E00
427,07	5,9672E00
427,44	6,5106E00
427,81	6,5553E00
428,17	6,6599E00
428,54	7,4070E00
428,90	8,0581E00
429,27	8,6916E00
429,64	8,6467E00
430,00	9,0070E00
430,37	1,0287E01
430,73	1,0776E01
431,10	1,0549E01
431,46	1,1986E01
431,83	1,2504E01
432,20	1,2876E01
432,56	1,2842E01
432,93	1,4842E01
433,29	1,4592E01
433,66	1,6878E01
434,02	1,7284E01
434,39	1,7713E01
434,75	1,9342E01
435,12	2,0979E01
435,49	2,1163E01
435,85	2,3305E01
436,22	2,4530E01
436,58	2,7024E01
436,95	2,8508E01
437,31	2,8865E01
437,68	3,2589E01
438,04	3,3733E01
438,41	3,5442E01
438,77	3,6162E01
439,14	3,8815E01
439,50	4,2394E01
439,87	4,4023E01
440,23	4,5753E01
440,60	4,6976E01
440,96	4,8901E01
441,33	5,0244E01
441,69	5,3453E01
442,06	5,5636E01
442,42	5,6207E01
442,78	5,5731E01
443,15	6,1763E01
443,51	6,1121E01
443,88	6,3953E01
444,24	6,2797E01
444,61	6,2243E01
444,97	6,8571E01
445,34	6,4983E01
445,70	6,5669E01
446,07	6,5131E01
446,43	6,6976E01
446,79	6,7184E01
447,16	6,7861E01
447,52	6,7409E01
447,89	6,7158E01
448,25	6,8812E01
448,62	6,7440E01
448,98	6,8025E01
449,34	6,4926E01
449,71	6,5211E01
450,07	6,4033E01
450,44	6,1787E01
450,80	6,1314E01
451,16	5,8793E01
451,53	5,8034E01
451,89	5,6886E01
452,25	5,6284E01
452,62	5,5631E01
452,98	5,4917E01
453,35	5,0027E01
453,71	4,9149E01
454,07	4,8474E01
454,44	4,7917E01
454,80	4,4129E01
455,16	4,4488E01
455,53	4,3146E01
455,89	4,1493E01
456,25	4,0485E01
456,62	3,9004E01
456,98	3,7988E01
457,34	3,5822E01
457,71	3,4970E01
458,07	3,4284E01
458,43	3,3053E01
458,80	3,0981E01
459,16	3,1547E01
459,52	2,8756E01
459,89	2,8856E01
460,25	2,6878E01
460,61	2,5421E01
460,98	2,4536E01
461,34	2,3267E01
461,70	2,2107E01
462,07	2,1949E01
462,43	2,0424E01
462,79	1,8984E01
463,15	1,8176E01
463,52	1,7799E01
463,88	1,7746E01
464,24	1,7046E01
464,61	1,6061E01
464,97	1,5203E01
465,33	1,4738E01
465,69	1,4320E01
466,06	1,3241E01
466,42	1,2894E01
466,78	1,1937E01
467,14	1,1469E01
467,51	1,1047E01
467,87	1,0499E01
468,23	9,8494E00
468,59	9,9223E00
468,95	8,9346E00
469,32	8,8357E00
469,68	8,1025E00
470,04	7,9292E00
470,40	7,4596E00
470,77	7,1496E00
471,13	6,5754E00
471,49	6,4118E00
471,85	6,2027E00
472,21	5,9573E00
472,58	5,6791E00
472,94	5,2976E00
473,30	5,2086E00
473,66	4,8516E00
474,02	4,7539E00
474,39	4,4960E00
474,75	4,3070E00
475,11	4,0566E00
475,47	3,8486E00
475,83	3,7087E00
476,19	3,4653E00
476,56	3,3968E00
476,92	3,1667E00
477,28	3,0419E00
477,64	2,8206E00
478,00	2,7823E00
478,36	2,4851E00
478,72	2,4563E00
479,09	2,3624E00
479,45	2,1702E00
479,81	2,1201E00
480,17	1,9518E00
480,53	1,9124E00
480,89	1,7961E00
481,25	1,7001E00
481,61	1,6200E00
481,97	1,5650E00
482,34	1,5131E00
482,70	1,3951E00
483,06	1,3050E00
483,42	1,2625E00
483,78	1,1985E00
484,14	1,1959E00
484,50	1,1256E00
484,86	1,1049E00
485,22	1,0144E00
485,58	1,0035E00
485,94	9,8407E-01
486,31	9,0133E-01
486,67	8,7573E-01
487,03	8,3851E-01
487,39	8,1484E-01
487,75	7,3773E-01
488,11	6,8672E-01
488,47	6,5693E-01
488,83	6,7365E-01
489,19	6,6032E-01
489,55	6,2089E-01
489,91	5,9233E-01
490,27	5,2871E-01
490,63	5,1429E-01
490,99	4,1949E-01
491,35	4,6040E-01
491,71	4,3622E-01
492,07	3,4472E-01
492,43	3,9375E-01
492,79	3,3463E-01
493,15	3,5674E-01
493,51	3,5441E-01
493,87	3,1195E-01
494,23	2,8826E-01
494,59	2,8638E-01
494,95	2,2267E-01
495,31	2,6592E-01
495,67	1,6844E-01
496,03	2,0699E-01
496,39	2,3046E-01
496,75	1,4840E-01
497,11	1,8386E-01
497,47	1,5266E-01
497,83	1,5504E-01
498,19	9,7311E-02
498,55	1,1687E-01
498,91	1,2113E-01
499,27	4,9204E-02
499,63	1,1523E-01
499,98	6,3500E-02
500,34	6,0032E-02
500,70	6,3834E-02
501,06	7,6167E-02
501,42	7,4783E-02
501,78	7,5289E-02
502,14	6,2014E-02
502,50	4,1897E-02
502,86	4,9433E-02
503,22	2,3913E-02
503,58	6,3444E-02
503,94	5,5930E-02
504,29	4,4610E-02
504,65	5,0435E-02
505,01	5,6933E-02
505,37	2,7879E-02
505,73	6,9486E-03
506,09	3,4034E-02
506,45	5,1403E-02
506,81	1,9535E-02
507,16	4,2491E-02
507,52	1,6567E-02
507,88	3,3012E-02
508,24	2,4383E-02
508,60	1,8467E-02
508,96	3,8687E-03
509,32	5,8416E-03
509,67	2,1366E-02
510,03	2,6522E-02
510,39	1,9302E-03
510,75	7,6432E-03
511,11	2,0343E-02
511,47	1,6733E-02
511,82	-2,7169E-02
512,18	1,4640E-02
512,54	-1,9759E-02
512,90	-2,9317E-03
513,26	-9,8038E-03
513,61	2,0441E-02
513,97	-8,6859E-03
514,33	1,9290E-03
514,69	9,7336E-04
515,05	1,8414E-02
515,40	8,7552E-03
515,76	2,0322E-02
516,12	3,8899E-03
516,48	6,1913E-02
516,83	4,3903E-02
517,19	2,2346E-02
517,55	-1,6513E-02
517,91	7,7885E-03
518,26	1,1824E-02
518,62	-7,8120E-03
518,98	-5,8899E-03
519,34	3,9586E-03
519,69	-2,9087E-03
520,05	-5,8213E-03
520,41	-1,9368E-03
520,77	-1,9384E-03
521,12	1,5770E-02
521,48	2,4717E-02
521,84	4,7806E-02
522,19	3,3098E-02
522,55	5,7244E-02
522,91	2,5570E-02
523,27	2,9369E-02
523,62	2,8356E-02
523,98	-2,1377E-02
524,34	-1,0759E-02
524,69	3,3383E-02
525,05	-1,4781E-02
525,41	-5,9259E-03
525,76	-2,1493E-02
526,12	1,9630E-03
526,48	1,2832E-02
526,83	4,9831E-02
527,19	-1,2453E-02
527,55	2,8220E-02
527,90	-1,0673E-02
528,26	7,8874E-03
528,62	-4,0185E-02
528,97	-1,2660E-02
529,33	2,1359E-02
529,69	2,8794E-02
530,04	2,3260E-02
530,40	4,7589E-03
530,76	2,3163E-02
531,11	-1,0541E-02
531,47	1,8163E-02
531,82	4,2678E-02
532,18	4,8466E-03
532,54	1,2446E-02
532,89	2,0761E-02
533,25	-1,9183E-03
533,60	-5,6240E-03
533,96	-1,4469E-02
534,32	2,6281E-02
534,67	1,8066E-02
535,03	3,0889E-02
535,38	-5,7415E-03
535,74	3,8013E-03
536,10	1,9932E-02
536,45	2,9065E-02
536,81	4,7367E-03
537,16	6,8092E-02
537,52	1,6135E-02
537,87	1,0553E-02
538,23	0,0000E00
538,58	6,4883E-03
538,94	3,9476E-02
539,30	-1,0182E-02
539,65	3,4412E-02
540,01	2,4991E-02
540,36	1,7875E-02
540,72	-3,1348E-02
541,07	1,8411E-02
541,43	8,3146E-03
541,78	-3,7096E-02
542,14	-6,3661E-03
542,49	6,4599E-03
542,85	-1,8417E-03
543,20	1,8359E-03
543,56	5,5424E-03
543,91	1,6600E-02
544,27	1,8232E-03
544,62	-7,2842E-03
544,98	1,9038E-02
545,33	1,7278E-02
545,69	-6,3829E-03
546,04	-1,1843E-02
546,40	-2,7681E-03
546,75	-2,1568E-02
547,10	-2,7781E-02
547,46	-8,9822E-04
547,81	1,0823E-02
548,17	-1,6243E-02
548,52	1,8090E-02
548,88	5,0381E-02
549,23	1,0768E-02
549,59	-2,6713E-03
549,94	1,6249E-02
550,29	2,7032E-03
550,65	2,2476E-02
551,00	3,7623E-02
551,36	-1,5288E-02
551,71	-1,7920E-02
552,06	1,1604E-02
552,42	2,0358E-02
552,77	3,5524E-03
553,13	-2,1629E-02
553,48	0,0000E00
553,83	6,3630E-03
554,19	-8,9242E-03
554,54	-1,7945E-03
554,90	-8,9384E-04
555,25	-1,7850E-03
555,60	0,0000E00
555,96	-1,5224E-02
556,31	-5,3625E-03
556,66	-1,5164E-02
557,02	-1,8942E-02
557,37	4,5079E-03
557,72	3,1607E-02
558,08	-1,0826E-02
558,43	7,2150E-03
558,79	-9,9957E-03
559,14	-2,1841E-02
559,49	3,6461E-03
559,85	-6,4208E-03
560,20	-1,0954E-02
560,55	-2,4679E-02
560,90	-9,0486E-04
561,26	-4,1131E-02
561,61	5,5133E-03
561,96	1,4857E-02
562,32	3,8952E-02
562,67	-1,2083E-02
563,02	-3,0640E-02
563,38	2,8135E-03
563,73	-2,1446E-02
564,08	8,4667E-03
564,43	1,4098E-02
564,79	1,8072E-02
565,14	1,3218E-02
565,49	-7,5723E-03
565,84	2,4610E-02
566,20	1,1351E-02
566,55	1,0471E-02
566,90	-1,5368E-02
567,25	-9,5031E-04
567,61	3,8072E-03
567,96	3,2449E-02
568,31	-9,6277E-03
568,66	2,3154E-02
569,02	3,7565E-02
569,37	7,8464E-03
569,72	4,1681E-02
570,07	2,7866E-02
570,42	-9,7354E-04
570,78	1,5734E-02
571,13	5,2242E-02
571,48	2,9366E-03
571,83	-1,1897E-02
572,18	2,5583E-02
572,54	4,9082E-03
572,89	5,3354E-02
573,24	1,9771E-03
573,59	-2,2701E-02
573,94	-9,7956E-03
574,30	-4,9958E-03
574,65	-2,4651E-02
575,00	-2,0664E-02
575,35	2,9804E-03
575,70	9,9487E-04
576,05	-2,1884E-02
576,40	1,2908E-02
576,76	9,9719E-03
577,11	1,7952E-02
577,46	2,5783E-02
577,81	2,5976E-02
578,16	1,3036E-02
578,51	4,3265E-02
578,86	2,8811E-02
579,21	5,0549E-02
579,57	3,3094E-02
579,92	1,8096E-02
580,27	-9,0646E-03
580,62	1,0236E-02
580,97	-1,0109E-03
581,32	-3,0449E-02
581,67	3,7390E-02
582,02	-2,0075E-02
582,37	-7,1147E-03
582,72	1,7194E-02
583,08	-8,1379E-03
583,43	-3,0440E-03
583,78	2,0404E-02
584,13	1,9244E-02
584,48	-2,0127E-02
584,83	3,0566E-02
585,18	-1,0218E-02
585,53	9,1749E-03
585,88	2,0420E-03
586,23	3,7857E-02
586,58	1,0143E-03
586,93	3,9785E-02
587,28	-1,4336E-02
587,63	3,0659E-03
587,98	-1,1251E-02
588,33	-1,4238E-02
588,68	-1,0245E-03
589,03	-2,7472E-02
589,38	2,1482E-02
589,73	3,0864E-03
590,08	-1,0240E-02
590,43	6,1652E-03
590,78	-1,0170E-02
591,13	-1,8503E-02
591,48	-3,5697E-02
591,83	-1,5398E-02
592,18	-8,2003E-03
592,53	-1,5425E-02
592,88	5,1441E-02
593,23	4,1245E-03
593,58	-1,3341E-02
593,93	5,1958E-03
594,28	-1,5399E-02
594,63	1,8736E-02
594,98	1,0375E-02
595,33	1,1325E-02
595,68	-1,9759E-02
596,02	2,0820E-03
596,37	6,2888E-03
596,72	0,0000E00
597,07	0,0000E00
597,42	1,1445E-02
597,77	-1,9869E-02
598,12	2,0926E-03
598,47	-4,2175E-03
598,82	3,7804E-02
599,17	0,0000E00
599,52	-9,4889E-03
599,86	2,0022E-02
600,21	1,0591E-03
600,56	3,2565E-02
600,91	-3,7060E-02
601,26	-2,0288E-02
601,61	-3,1983E-03
601,96	-1,0590E-03
602,30	-1,9150E-02
602,65	-1,5996E-02
603,00	-3,2020E-03
603,35	1,0746E-02
603,70	4,3360E-02
604,05	3,0321E-02
604,40	3,4521E-02
604,74	3,0286E-02
605,09	2,7083E-02
605,44	4,3721E-02
605,79	6,5607E-03
606,14	-5,4512E-03
606,48	4,1399E-02
606,83	-2,1843E-02
607,18	1,5504E-02
607,53	-3,3029E-03
607,88	-1,1072E-03
608,22	-6,6345E-03
608,57	-4,0093E-02
608,92	-2,0151E-02
609,27	-1,1231E-03
609,62	-1,0109E-02
609,96	4,5227E-03
610,31	-1,5856E-02
610,66	1,9269E-02
611,01	-2,0390E-02
611,35	3,0711E-02
611,70	2,6531E-02
612,05	-2,2842E-03
612,40	-5,7761E-03
612,74	3,4484E-03
613,09	-2,3183E-03
613,44	2,0863E-02
613,79	-3,4619E-03
614,13	2,8384E-02
614,48	-7,0105E-03
614,83	3,2998E-02
615,17	2,9477E-02
615,52	7,0833E-03
615,87	1,1801E-03
616,22	0,0000E00
616,56	-4,6504E-02
616,91	2,2662E-02
617,26	-2,8511E-02
617,60	2,3999E-03
617,95	1,9202E-02
618,30	7,2686E-03
618,64	-2,2752E-02
618,99	1,4520E-02
619,34	-2,4401E-02
619,68	4,8323E-03
620,03	-3,7531E-02
620,38	9,7952E-03
620,72	4,5215E-02
621,07	2,6821E-02
621,42	0,0000E00
621,76	1,7087E-02
622,11	-3,8067E-02
622,45	2,1102E-02
622,80	-1,8581E-02
623,15	-3,6986E-03
623,49	-3,7538E-03
623,84	-1,1286E-02
624,18	-2,1226E-02
624,53	7,5059E-03
624,88	1,4975E-02
625,22	1,2619E-02
625,57	0,0000E00
625,91	-1,1330E-02
626,26	-1,5220E-02
626,61	3,1477E-02
626,95	-3,6950E-02
627,30	-4,5999E-02
627,64	2,6896E-02
627,99	-3,6104E-02
628,33	1,7815E-02
628,68	-1,4145E-02
629,03	1,0263E-02
629,37	2,3369E-02
629,72	-7,2226E-02
630,06	-8,9265E-03
630,41	-6,5267E-03
630,75	1,3022E-02
631,10	-2,4864E-02
631,44	1,8210E-02
631,79	4,4479E-02
632,13	1,0553E-02
632,48	1,3077E-03
632,82	3,0401E-02
633,17	-1,4622E-02
633,51	-1,1897E-02
633,86	2,1369E-02
634,20	-6,6660E-03
634,55	3,9743E-03
634,89	2,1405E-02
635,24	4,2737E-02
635,58	-4,2524E-02
635,93	-1,0790E-02
636,27	4,4291E-02
636,62	4,0454E-03
636,96	1,7419E-02
637,30	3,6445E-02
637,65	-6,7731E-03
637,99	-5,4073E-03
638,34	8,1054E-03
638,68	-1,0866E-02
639,03	-1,2182E-02
639,37	-6,7924E-03
639,71	-2,1778E-02
640,06	-1,2296E-02
640,40	1,3790E-02
640,75	-8,2377E-03
641,09	2,7346E-02
641,44	9,6481E-03
641,78	-5,0745E-02
642,12	-1,6528E-02
642,47	1,6696E-02
642,81	-3,5671E-02
643,15	6,9813E-03
643,50	8,4153E-02
643,84	1,3894E-02
644,19	3,9033E-02
644,53	1,8294E-02
644,87	3,7586E-02
645,22	2,3859E-02
645,56	1,2650E-02
645,90	-2,2436E-02
646,25	2,9397E-02
646,59	0,0000E00
646,93	9,9731E-03
647,28	-1,8298E-02
647,62	-3,5458E-02
647,96	1,7194E-02
648,31	-1,9953E-02
648,65	-1,8593E-02
648,99	1,4297E-02
649,34	-4,0632E-02
649,68	2,2955E-02
650,02	1,1532E-02
650,36	-7,2475E-03
650,71	1,8783E-02
651,05	-7,2635E-03
651,39	-1,4497E-02
651,74	-7,7187E-02
652,08	9,4573E-02
652,42	2,3322E-02
652,76	4,4153E-03
653,11	5,2448E-02
653,45	-8,8151E-03
653,79	1,7740E-02
654,13	1,7678E-02
654,48	1,6330E-02
654,82	-5,9693E-03
655,16	2,9906E-03
655,50	-3,8878E-02
655,85	1,9386E-02
656,19	5,9902E-03
656,53	-2,2570E-02
656,87	-1,9741E-02
657,21	6,6537E-02
657,56	1,5151E-03
657,90	-6,3839E-02
658,24	-2,1328E-02
658,58	0,0000E00
658,92	2,1275E-02
659,27	8,8483E-02
659,61	-1,2320E-02
659,95	3,9947E-02
660,29	6,4563E-02
660,63	-3,0889E-03
660,97	1,3908E-02
661,32	-9,3191E-03
661,66	-1,8711E-02
662,00	-5,4458E-02
662,34	-2,0296E-02
662,68	-3,6031E-02
663,02	7,8478E-03
663,37	7,5394E-02
663,71	-1,4209E-02
664,05	3,7830E-02
664,39	-2,8668E-02
664,73	-3,6812E-02
665,07	5,1197E-02
665,41	1,7583E-02
665,75	1,4376E-02
666,09	9,7203E-03
666,44	7,3226E-02
666,78	6,3233E-02
667,12	3,0978E-02
667,46	-6,4857E-03
667,80	4,8974E-02
668,14	3,4501E-02
668,48	-6,1145E-02
668,82	4,9453E-03
669,16	-3,6747E-02
669,50	-7,9358E-02
669,84	-2,6719E-02
670,18	-5,3551E-02
670,52	6,7323E-03
670,86	2,0325E-02
671,20	8,4844E-03
671,54	-8,4214E-03
671,88	2,3657E-02
672,22	3,7204E-02
672,57	1,7175E-03
672,91	7,5540E-02
673,25	1,0345E-02
673,59	1,3771E-02
673,93	1,2182E-02
674,27	5,8812E-02
674,61	-4,2158E-02
674,95	-2,0835E-02
675,28	2,6262E-02
675,62	-3,4830E-02
675,96	3,7120E-02
676,30	-1,2385E-02
676,64	1,0643E-02
676,98	4,9745E-02
677,32	-4,3090E-02
677,66	-3,0767E-02
678,00	-5,7542E-02
678,34	7,9742E-02
678,68	8,8815E-02
679,02	-1,0931E-02
679,36	2,3542E-02
679,70	2,1837E-02
680,04	1,0923E-02
680,38	-2,9300E-02
680,72	1,1057E-02
681,06	-1,8456E-03
681,39	2,4098E-02
681,73	-9,2596E-03
682,07	-6,3551E-02
682,41	-5,6364E-02
682,75	3,2183E-02
683,09	-1,6804E-02
683,43	6,0241E-02
683,77	-3,9891E-02
684,11	-6,4429E-02
684,44	-2,8785E-02
684,78	-2,6795E-02
685,12	8,2673E-02
685,46	-1,3373E-02
685,80	4,9842E-02
686,14	1,9325E-03
686,48	7,2091E-02
686,81	3,9072E-03
687,15	1,9417E-02
687,49	2,5569E-02
687,83	-8,7487E-02
688,17	3,9708E-03
688,51	-1,1835E-02
688,84	8,0048E-03
689,18	-1,5752E-02
689,52	-6,3903E-02
689,86	-6,0036E-03
690,20	2,1888E-02
690,53	-6,0553E-02
690,87	-2,0062E-02
691,21	0,0000E00
691,55	4,0345E-03
691,88	-8,2113E-03
692,22	4,2803E-02
692,56	3,8768E-02
692,90	5,0910E-02
693,23	2,2415E-02
693,57	2,0507E-03
693,91	-2,0693E-03
694,25	2,2798E-02
694,58	-3,1137E-02
694,92	6,2564E-02
695,26	2,3086E-02
695,60	-2,1151E-02
695,93	4,1730E-03
696,27	-3,7332E-02
696,61	-2,1093E-03
696,94	-3,9864E-02
697,28	5,7082E-02
697,62	6,3222E-02
697,96	-8,0705E-02
698,29	-2,1106E-03
698,63	-3,1979E-02
698,97	5,6084E-02
699,30	-5,1053E-02
699,64	-1,2881E-02
699,98	-7,3332E-02
700,31	-3,2207E-02
700,65	2,1333E-02
700,99	0,0000E00
701,32	-1,5234E-02
701,66	6,5305E-02
702,00	-4,1164E-02
702,33	-5,4467E-02
702,67	1,0891E-02
703,00	-3,2919E-02
703,34	5,6914E-02
703,68	3,3055E-02
704,01	-8,9050E-02
704,35	1,9961E-02
704,69	-5,5513E-02
705,02	2,8860E-02
705,36	-7,5465E-02
705,69	1,9981E-02
706,03	-6,7063E-03
706,36	3,5647E-02
706,70	2,2109E-02
707,04	-2,2238E-03
707,37	8,0925E-02
707,71	-3,6185E-02
708,04	-5,6743E-02
708,38	-6,5722E-02
708,71	-7,2155E-02
709,05	-3,8483E-02
709,39	-6,8779E-03
709,72	-4,1197E-02
710,06	0,0000E00
710,39	-6,8808E-03
710,73	-4,3262E-02
711,06	-2,5525E-02
711,40	-5,9611E-02
711,73	3,2326E-02
712,07	3,0049E-02
712,40	6,9373E-03
712,74	3,6961E-02
713,07	1,1094E-01
713,41	-4,6666E-03
713,74	-4,8814E-02
714,08	3,7355E-02
714,41	-2,3471E-03
714,75	-7,3128E-02
715,08	-1,6382E-02
715,42	9,4881E-03
715,75	6,8494E-02
716,08	0,0000E00
716,42	-4,7656E-02
716,75	-2,6056E-02
717,09	-4,7943E-02
717,42	-2,8772E-02
717,76	-5,0210E-02
718,09	7,2212E-03
718,43	-4,3367E-02
718,76	-7,1865E-03
719,09	-7,2350E-03
719,43	-9,6975E-03
719,76	8,7554E-02
720,10	-4,1026E-02
720,43	2,4397E-02
720,76	-6,3397E-02
721,10	4,4117E-02
721,43	5,8665E-02
721,76	7,4038E-03
722,10	-8,8448E-02
722,43	1,7422E-02
722,77	9,9029E-03
723,10	-9,6934E-02
723,43	-4,2576E-02
723,77	-6,4601E-02
724,10	-1,2710E-01
724,43	-5,9818E-02
724,77	-1,4985E-02
725,10	7,3449E-02
725,43	3,5122E-02
725,77	-7,0609E-02
726,10	-5,3040E-02
726,43	1,1853E-01
726,77	-1,2659E-02
727,10	-2,5399E-03
727,43	-2,2858E-02
727,77	-4,3478E-02
728,10	-1,0300E-02
728,43	-3,1040E-02
728,76	6,9799E-02
729,10	-2,6063E-02
729,43	6,7707E-02
729,76	-1,0464E-02
730,09	5,2362E-02
730,43	2,1104E-02
730,76	2,1222E-02
731,09	2,6435E-03
731,42	-3,1429E-02
731,76	6,1334E-02
732,09	-5,2891E-03
732,42	1,3295E-02
732,75	6,1716E-02
733,09	-3,7340E-02
733,42	-6,7344E-02
733,75	-1,0565E-01
734,08	2,7271E-03
734,41	-1,1401E-01
734,75	-3,0047E-02
735,08	-1,0059E-01
735,41	-1,0930E-02
735,74	-7,4293E-02
736,07	1,6436E-02
736,41	-6,6285E-02
736,74	-5,5665E-02
737,07	-3,3324E-02
737,40	-1,9516E-02
737,73	3,3206E-02
738,06	1,1588E-01
738,40	9,9034E-02
738,73	-2,8066E-02
739,06	1,4229E-02
739,39	7,7078E-02
739,72	-2,5657E-02
740,05	-1,0546E-01
740,38	8,3951E-02
740,72	5,7971E-02
741,05	1,4390E-02
741,38	-2,6131E-02
741,71	-9,3596E-02
742,04	-3,8233E-02
742,37	2,0500E-02
742,70	-6,7211E-02
743,03	-7,3717E-02
743,36	1,7815E-02
743,69	2,9448E-02
744,02	-7,1964E-02
744,36	8,3933E-02
744,69	-1,7939E-02
745,02	2,3948E-02
745,35	9,7701E-02
745,68	0,0000E00
746,01	-4,8536E-02
746,34	-6,3710E-02
746,67	5,5180E-02
747,00	-8,0502E-02
747,33	-9,3275E-02
747,66	6,7766E-02
747,99	4,0657E-02
748,32	1,5683E-02
748,65	-6,3325E-03
748,98	5,2838E-02
749,31	9,7507E-02
749,64	1,2756E-02
749,97	-3,1666E-03
750,30	3,8159E-02
750,63	-1,6023E-02
750,96	6,4175E-02
751,29	3,8835E-02
751,62	3,2382E-02
751,95	2,2832E-02
752,28	4,8921E-02
752,61	1,9838E-02
752,94	-3,9952E-02
753,27	-3,2995E-03
753,60	-2,6639E-02
753,92	-4,6739E-02
754,25	-4,3287E-02
754,58	7,7392E-02
754,91	-5,0440E-02
755,24	-4,7460E-02
755,57	-1,6868E-02
755,90	2,3884E-02
756,23	4,7989E-02
756,56	2,3864E-02
756,89	-6,8929E-03
757,22	6,9197E-03
757,54	9,3509E-02
757,87	-3,4965E-03
758,20	6,9520E-03
758,53	-1,4144E-02
758,86	-7,0395E-03
759,19	5,6640E-02
759,52	-1,4808E-01
759,84	-3,2401E-02
760,17	-4,6633E-02
760,50	-1,1874E-01
760,83	-7,6201E-02
761,16	5,6072E-02
761,49	-1,3978E-01
761,81	2,2138E-02
762,14	-4,0710E-02
762,47	1,0613E-01
762,80	3,6904E-02
763,13	-3,3388E-02
763,45	-7,8776E-02
763,78	1,5326E-01
764,11	6,3805E-02
764,44	1,5043E-01
764,77	7,4999E-03
765,09	-1,1361E-02
765,42	4,5881E-02
765,75	-3,8019E-03
766,08	1,9115E-02
766,40	-4,6297E-02
766,73	-1,0795E-01
767,06	-5,0662E-02
767,39	2,0245E-01
767,71	7,8433E-03
768,04	-6,6891E-02
768,37	1,0631E-01
768,70	5,1740E-02
769,02	3,1830E-02
769,35	6,4326E-02
769,68	-1,2020E-01
770,00	-1,0362E-01
770,33	-3,9653E-02
770,66	4,0108E-02
770,99	6,9615E-02
771,31	9,8077E-02
771,64	-4,8670E-02
771,97	-2,1725E-01
772,29	-1,5233E-01
772,62	-1,1676E-01
772,95	2,4947E-02
773,27	4,1768E-03
773,60	1,3519E-01
773,93	-1,5275E-01
774,25	7,0653E-02
774,58	-2,1001E-02
774,90	-1,0205E-01
775,23	2,5195E-01
775,56	-2,1460E-02
775,88	8,5056E-03
776,21	-5,1809E-02
776,54	1,4752E-01
776,86	-6,5003E-02
777,19	-2,1668E-02
777,51	8,7449E-03
777,84	-5,6875E-02
778,16	-2,6621E-02
778,49	-1,3605E-01
778,82	-5,7282E-02
779,14	-8,3678E-02
779,47	-1,0737E-01
779,79	-1,2490E-01
780,12	-1,2540E-01
780,44	-1,2689E-01
780,77	-1,3040E-01
781,10	9,1129E-03
781,42	-8,6099E-02
781,75	-9,3026E-03
782,07	1,8611E-01
782,40	0,0000E00
782,72	-3,7239E-02
783,05	-2,3357E-02
783,37	7,0535E-02
783,70	1,4652E-01
784,02	-7,5816E-02
784,35	1,1808E-01
784,67	1,2328E-01
785,00	7,6361E-02
785,32	9,6748E-03
785,65	-1,9981E-01
785,97	-1,5759E-01
786,30	-2,6020E-01
786,62	-9,1618E-02
786,94	-1,7707E-01
787,27	-1,2173E-01
787,59	-1,4767E-02
787,92	-4,8663E-03
788,24	-1,2781E-01
788,57	1,4757E-02
788,89	-1,9939E-02
789,22	6,3784E-02
789,54	-1,1234E-01
789,86	2,3257E-01
790,19	1,1341E-01
790,51	1,0882E-01
790,84	3,9378E-02
791,16	1,2757E-01
791,48	0,0000E00
791,81	-1,2873E-01
792,13	1,9688E-02
792,45	2,9847E-02
792,78	-3,5266E-02
793,10	-3,9719E-02
793,43	6,0057E-02
793,75	4,4930E-02
794,07	5,9665E-02
794,40	7,8874E-02
794,72	-1,7445E-01
795,04	-6,9616E-02
795,37	-5,4150E-02
795,69	1,1033E-01
796,01	0,0000E00
796,34	-2,4643E-02
796,66	2,4774E-02
796,98	4,3961E-02
797,30	9,3964E-02
797,63	3,9255E-02
797,95	-1,9323E-01
798,27	1,4630E-01
798,60	-9,1789E-02
798,92	-8,4266E-02
799,24	-3,4363E-02
799,56	7,8884E-02
799,89	-1,9641E-02
800,21	9,3414E-02
800,53	4,4478E-02
800,85	-9,3150E-02
801,18	1,4192E-01
801,50	6,8995E-02
801,82	-4,8779E-02
802,14	5,8903E-02
802,47	-7,8050E-02
802,79	8,8849E-02
803,11	-5,4279E-02
803,43	-1,5050E-01
803,75	-1,5280E-01
804,08	-2,4574E-02
804,40	9,7833E-03
804,72	9,7443E-02
805,04	1,1183E-01
805,36	-4,9370E-02
805,69	9,9352E-02
806,01	-2,0289E-01
806,33	-9,9057E-03
806,65	-1,2827E-01
806,97	-2,4891E-02
807,29	-7,4439E-02
807,62	-3,0105E-02
807,94	-2,9916E-02
808,26	1,0007E-02
808,58	-1,5156E-02
808,90	7,0638E-02
809,22	1,6873E-01
809,54	3,2548E-01
809,86	-1,2122E-01
810,18	-2,0045E-02
810,51	-9,6197E-02
810,83	-3,5948E-02
811,15	-1,0717E-01
811,47	-1,1854E-01
811,79	-4,6378E-02
812,11	-2,9296E-01
812,43	8,3377E-02
812,75	-1,4051E-01
813,07	-2,0799E-02
813,39	-3,1151E-02
813,71	-1,0579E-02
814,03	3,1122E-02
814,35	4,7042E-02
814,67	-8,9934E-02
814,99	5,2764E-03
815,31	1,1757E-01
815,64	-1,0015E-01
815,96	-1,3237E-01
816,28	-1,2789E-01
816,60	-3,2237E-02
816,92	6,5100E-02
817,24	-1,7875E-01
817,56	1,1946E-01
817,88	9,9241E-02
818,19	-1,6911E-01
818,51	-8,1560E-02
818,83	-9,8853E-02
819,15	1,8139E-01
819,47	-5,9957E-02
819,79	5,5135E-02
820,11	-9,8297E-02
820,43	6,1054E-02
820,75	7,7981E-02
821,07	3,8907E-02
821,39	1,3905E-01
821,71	1,2874E-01
822,03	-1,5289E-01
822,35	-3,3846E-02
822,67	-6,8938E-02
822,99	6,2327E-02
823,31	-1,5982E-01
823,62	-2,1311E-01
823,94	-2,0453E-01
824,26	-1,0414E-01
824,58	-1,0413E-01
824,90	-5,1831E-02
825,22	-1,7075E-01
825,54	-8,7985E-02
825,86	7,0663E-02
826,17	-2,3490E-02
826,49	4,7299E-02
826,81	1,3652E-01
827,13	7,1911E-02
827,45	-3,5704E-02
827,77	-7,1937E-02
828,08	-1,1990E-02
828,40	9,0514E-02
828,72	1,2821E-01
829,04	-1,2122E-02
829,36	2,0358E-01
829,67	7,3400E-02
829,99	5,5164E-02
830,31	-1,8834E-01
830,63	1,2565E-01
830,95	1,5466E-01
831,26	1,2632E-01
831,58	4,3786E-02
831,90	1,2668E-02
832,22	-3,1830E-02
832,53	2,6071E-01
832,85	1,3527E-01
833,17	-1,0410E-01
833,49	-9,6379E-02
833,80	-2,5889E-02
834,12	5,2213E-02
834,44	3,9355E-02
834,76	-1,6873E-01
835,07	-1,5765E-01
835,39	1,9733E-02
835,71	-2,6333E-02
836,02	-2,4544E-01
836,34	-1,0720E-01
836,66	2,1906E-01
836,97	7,2571E-02
837,29	-3,5028E-01
837,61	-1,0076E-01
837,93	-2,0302E-02
838,24	-1,0082E-01
838,56	-1,3628E-01
838,88	8,8435E-02
839,19	4,7704E-02
839,51	1,4337E-01
839,82	-1,3189E-01
840,14	2,0897E-02
840,46	1,3771E-02
840,77	3,0623E-01
841,09	4,8795E-02
841,41	3,4990E-02
841,72	-1,4921E-01
842,04	-2,1330E-02
842,35	1,0648E-01
842,67	1,3431E-01
842,99	-9,2781E-02
843,30	-9,2669E-02
843,62	1,6677E-01
843,93	4,3946E-02
844,25	1,0133E-01
844,56	2,1807E-02
844,88	4,4344E-02
845,20	1,2513E-01
845,51	-3,3751E-01
845,83	-8,2113E-02
846,14	8,9925E-02
846,46	1,8582E-01
846,77	-8,9515E-02
847,09	4,5541E-02
847,40	-1,4491E-01
847,72	-2,3011E-02
848,03	2,0499E-01
848,35	6,0954E-02
848,66	1,5671E-02
848,98	1,3920E-01
849,29	-1,0673E-01
849,61	1,3247E-01
849,92	5,4466E-02
850,24	-7,9037E-03
850,55	-8,5771E-02
850,87	-1,7873E-01
851,18	1,0299E-01
851,50	-1,1308E-01
851,81	-3,9941E-02
852,12	2,4179E-02
852,44	-1,5254E-01
852,75	2,4272E-02
853,07	-2,7034E-01
853,38	-3,4284E-01
853,70	-6,5922E-02
854,01	-7,3654E-02
854,32	-1,4281E-01
854,64	-1,2530E-01
854,95	-6,6743E-02
855,27	-2,4871E-02
855,58	-9,2950E-02
855,89	-1,3699E-01
856,21	-1,6233E-01
856,52	1,7884E-01
856,83	-1,1103E-01
857,15	-9,4532E-02
857,46	-1,4690E-01
857,77	8,7096E-03
858,09	8,7146E-03
858,40	-1,0502E-01
858,71	1,3933E-01
859,03	9,7586E-02
859,34	7,0136E-02
859,65	-2,0499E-01
859,97	-3,9321E-01
860,28	-2,5159E-01
860,59	-2,9778E-01
860,91	-3,1665E-01
861,22	-2,9070E-01
861,53	-1,0930E-01
861,84	9,0444E-03
862,16	-3,2116E-01
862,47	-3,7215E-02
862,78	-2,4790E-01
863,10	1,4098E-01
863,41	1,5877E-01
863,72	1,8794E-02
864,03	7,5340E-02
864,35	4,4384E-01
864,66	0,0000E00
864,97	-1,4281E-01
865,28	1,5315E-01
865,59	-9,7022E-02
865,91	-2,3473E-01
866,22	-1,4435E-01
866,53	-1,1774E-01
866,84	3,9051E-02
867,15	1,0818E-01
867,47	-4,5705E-01
867,78	-8,9724E-02
868,09	-1,0985E-01
868,40	0,0000E00
868,71	-2,8292E-01
869,02	-1,1080E-01
869,34	2,2242E-01
869,65	-3,9324E-01
869,96	5,1373E-02
870,27	5,1331E-02
870,58	4,2309E-01
870,89	-3,1210E-02
871,20	1,6894E-01
871,52	-1,2499E-01
871,83	-1,2494E-01
872,14	1,0560E-02
872,45	-4,2665E-02
872,76	-3,9497E-01
873,07	1,4031E-01
873,38	0,0000E00
873,69	-4,4150E-01
874,00	3,2983E-02
874,31	-5,4813E-02
874,62	8,8033E-02
874,94	-3,4258E-01
875,25	3,3336E-02
875,56	-2,2446E-02
875,87	-3,2707E-01
876,18	4,5111E-02
876,49	-1,7983E-01
876,80	2,0495E-01
877,11	-3,6361E-01
877,42	-4,5557E-02
877,73	-3,4876E-01
878,04	-3,4197E-01
878,35	-4,6445E-02
878,66	-8,1109E-02
878,97	-7,5439E-01
879,28	1,1583E-02
879,59	-2,3560E-01
879,90	4,6884E-02
880,21	2,9588E-01
880,52	1,1817E-01
880,83	1,1769E-01
881,14	-4,8170E-01
881,45	0,0000E00
881,76	-1,7742E-01
882,07	4,2758E-01
882,37	5,9180E-02
882,68	1,1891E-01
882,99	1,9068E-01
883,30	1,0778E-01
883,61	1,1800E-01
883,92	0,0000E00
884,23	-1,0734E-01
884,54	8,4098E-02
884,85	-3,3994E-01
885,16	-4,1889E-01
885,47	-3,4684E-01
885,77	-5,4793E-01
886,08	-4,8051E-02
886,39	1,1718E-01
886,70	4,1755E-01
887,01	2,1433E-01
887,32	-1,5341E-01
887,63	3,9055E-01
887,93	6,4725E-01
888,24	-1,3284E-01
888,55	4,0629E-01
888,86	1,2047E-01
889,17	1,2158E-01
889,47	-4,7548E-01
889,78	-2,3599E-02
890,09	3,5643E-02
890,40	1,5638E-01
890,71	4,8021E-02
891,01	4,7783E-02
891,32	3,0022E-01
891,63	-3,8767E-01
891,94	-7,2135E-02
892,25	2,0356E-01
892,55	9,4998E-02
892,86	-1,4319E-01
893,17	4,8027E-02
893,48	2,0393E-01
893,78	-3,5655E-01
894,09	2,0496E-01
894,40	4,5996E-01
894,70	1,0903E-01
895,01	2,2635E-01
895,32	1,3137E-01
895,63	-2,6371E-01
895,93	1,8013E-01
896,24	-6,1072E-02
896,55	-2,6773E-01
896,85	-1,9292E-01
897,16	-2,5212E-01
897,47	1,3092E-01
897,77	0,0000E00
898,08	-4,8897E-02
898,39	3,6708E-01
898,69	0,0000E00
899,00	-1,4710E-01
899,31	-2,8935E-01
899,61	7,4699E-02
899,92	0,0000E00
900,23	-1,2226E-01
900,53	-1,2493E-02
900,84	2,1313E-01
901,14	-3,7439E-02
901,45	-1,1030E-01
901,76	4,7446E-01
902,06	-4,5144E-01
902,37	-2,9109E-01
902,67	1,2624E-02
902,98	2,5776E-02
903,29	3,2789E-01
903,59	-4,6185E-01
903,90	0,0000E00
904,20	1,9392E-01
904,51	-1,3078E-02
904,81	1,6507E-01
905,12	2,4228E-01
905,42	2,0286E-01
905,73	1,7932E-01
906,03	1,5503E-01
906,34	-1,5691E-01
906,64	3,7013E-01
906,95	-3,8222E-01
907,25	2,2577E-01
907,56	-2,8346E-01
907,86	-1,7406E-01
908,17	-1,0764E-01
908,47	-1,8879E-01
908,78	-4,0769E-02
909,08	-2,7021E-02
909,39	-3,7143E-01
909,69	-4,2242E-01
910,00	-2,7577E-02
910,30	1,3863E-02
910,61	-9,9488E-02
910,91	2,9012E-01
911,21	2,2414E-01
911,52	2,6883E-01
911,82	6,8088E-01
912,13	-5,6500E-02
912,43	5,1499E-01
912,74	1,5904E-01
913,04	-1,7331E-01
913,34	2,4841E-01
913,65	-1,0238E-01
913,95	-7,3868E-02
914,25	2,9661E-01
914,56	-2,7736E-01
914,86	1,9316E-01
915,17	-2,2556E-01
915,47	-1,4955E-02
915,77	2,4200E-01
916,08	-5,6668E-01
916,38	6,0802E-02
916,68	3,2201E-01
916,99	-4,3632E-01
917,29	3,3933E-01
917,59	-9,3580E-02
917,90	-3,8094E-01
918,20	-4,1277E-01
918,50	2,2114E-01
918,80	-3,0054E-01
919,11	-9,9528E-01
919,41	-3,7973E-01
919,71	-6,3907E-02
920,02	-2,4415E-01
920,32	-3,2409E-01
920,62	-2,6229E-01
920,92	-1,3268E-01
921,23	-2,8231E-01
921,53	1,8234E-01
921,83	-3,0609E-01
922,13	-1,6789E-02
922,44	-7,0967E-01
922,74	-3,0902E-01
923,04	-3,0956E-01
923,34	6,8996E-02
923,64	3,0951E-01
923,95	-2,2580E-01
924,25	-8,7605E-02
924,55	-7,1656E-02
924,85	-1,4220E-01
925,15	-2,9676E-01
925,46	3,4256E-01
925,76	3,6300E-02
926,06	-7,1901E-02
926,36	-3,9744E-01
926,66	-6,0006E-01
926,96	-2,0220E-01
927,26	-7,3842E-02
927,57	5,5628E-02
927,87	4,4814E-01
928,17	-3,3778E-01
928,47	0,0000E00
928,77	1,1552E-01
929,07	-5,5954E-01
929,37	-1,9140E-02
929,67	5,7278E-02
929,98	-5,0544E-01
930,28	1,7925E-01
930,58	-3,9588E-01
930,88	4,7349E-01
931,18	-4,8505E-01
931,48	0,0000E00
931,78	-4,1265E-01
932,08	-9,2542E-01
932,38	-4,9584E-01
932,68	-4,6011E-01
932,98	-5,3788E-01
933,28	-7,6085E-01
933,58	-4,4176E-01
933,88	3,3590E-01
934,18	2,5573E-01
934,48	0,0000E00
934,78	1,5201E-01
935,08	5,4594E-01
935,38	2,8053E-01
935,68	4,0000E-01
935,98	-1,7629E-01
936,28	-6,6428E-02
936,58	1,1220E-01
936,88	-1,5618E-01
937,18	-3,3690E-01
937,48	-4,0683E-01
937,78	9,0475E-02
938,08	4,3888E-01
938,38	-3,2788E-01
938,68	-3,0849E-01
938,98	-7,0177E-02
939,28	-3,1200E-01
939,57	-7,1631E-02
939,87	-5,3416E-01
940,17	0,0000E00
940,47	-5,1500E-01
940,77	7,4230E-01
941,07	-7,8694E-01
941,37	-4,9603E-01
941,67	-3,7117E-01
941,97	-5,0305E-02
942,26	6,1173E-01
942,56	3,5491E-01
942,86	-3,6096E-01
943,16	6,2526E-01
943,46	6,2276E-01
943,76	9,7429E-01
944,06	-7,8524E-02
944,35	-3,9613E-01
944,65	6,5266E-01
944,95	-7,1035E-01
945,25	3,0822E-01
945,55	8,1105E-02
945,84	-8,2724E-02
946,14	-2,7608E-02
946,44	-4,6679E-01
946,74	8,8894E-01
947,03	-1,1064E-01
947,33	-6,7088E-01
947,63	7,7251E-01
947,93	2,8625E-01
948,23	-9,7038E-01
948,52	8,8249E-02
948,82	4,3242E-01
949,12	-1,7412E-01
949,41	-1,1783E-01
949,71	-9,1589E-02
950,01	0,0000E00
950,31	-5,0362E-01
950,60	5,9608E-02
950,90	-1,8181E-01
951,20	-1,2243E-01
951,49	-1,5649E00
951,79	1,2676E-01
952,09	-3,0930E-02
952,38	-2,5635E-01
952,68	-3,1971E-02
952,98	7,4473E-01
953,27	8,9235E-01
953,57	3,8730E-01
953,87	3,9304E-01
954,16	-5,0248E-01
954,46	-4,2888E-01
954,76	2,3285E-01
955,05	-1,0282E00
955,35	-4,3745E-01
955,64	3,0592E-01
955,94	-8,5822E-01
956,24	-8,0878E-01
956,53	3,4092E-01
956,83	-7,7721E-01
957,12	-1,1523E00
957,42	3,5514E-01
957,72	-1,0862E-01
958,01	3,2054E-01
958,31	-2,1584E-01
958,60	3,2912E-01
958,90	-2,9519E-01
959,19	-1,2383E00
959,49	1,4459E00
959,78	7,7058E-01
960,08	-7,4069E-02
960,37	-6,5906E-01
960,67	-1,0292E00
960,96	-2,1379E00
961,26	1,5893E-01
961,55	7,9913E-02
961,85	-8,4844E-01
962,14	3,9244E-01
962,44	-5,7876E-01
962,73	-2,0106E-01
963,03	-5,2981E-01
963,32	-9,3736E-01
963,62	-1,2050E00
963,91	7,7383E-01
964,21	-4,2304E-02
964,50	-1,1022E00
964,80	1,0048E00
965,09	-4,8594E-01
965,38	-8,8252E-02
965,68	-2,5746E-01
965,97	3,1258E-01
966,27	-1,3356E-01
966,56	-1,6400E00
966,85	3,1646E-01
967,15	-1,8009E-01
967,44	-3,0921E-01
967,74	-1,2114E00
968,03	1,2081E00
968,32	-1,4642E00
968,62	-1,0771E00
968,91	6,5982E-01
969,20	-9,1794E-01
969,50	-4,7650E-01
969,79	-9,7598E-02
970,08	8,0528E-01
970,38	-4,8345E-01
970,67	6,1821E-01
970,96	4,4175E-01
971,26	-7,0446E-01
971,55	-3,3944E-01
971,84	1,5606E00
972,13	2,0459E-01
972,43	8,7080E-01
972,72	5,2811E-01
973,01	1,0202E00
973,31	3,3457E00
973,60	-3,2272E-01
973,89	-1,8033E00
974,18	-2,6987E-01
974,48	-2,2342E-01
974,77	-1,6677E-01
975,06	-1,2044E00
975,35	1,0042E00
975,64	-1,1964E00
975,94	-5,1902E-01
976,23	4,6466E-01
976,52	7,1136E-01
976,81	2,9407E-01
977,10	7,1773E-01
977,40	-2,3589E-01
977,69	-1,1714E-01
977,98	-3,7879E00
978,27	-1,5002E00
978,56	7,3229E-01
978,86	3,6889E-01
979,15	0,0000E00
979,44	4,9983E-01
979,73	-1,9566E00
980,02	-1,8956E-01
980,31	1,9825E00
980,60	6,4664E-01
980,89	4,5085E-01
981,19	3,3815E-01
981,48	1,1274E00
981,77	1,3594E00
982,06	5,9512E-01
982,35	1,0807E00
982,64	-1,6043E00
982,93	8,6326E-01
983,22	-2,3421E00
983,51	4,2730E-01
983,80	7,3281E-02
984,09	-7,8924E-01
984,38	1,2213E00
984,67	-2,2257E00
984,96	-5,2986E-01
985,25	1,5617E00
985,55	-1,0436E00
985,84	6,5857E-01
986,13	8,8199E-01
986,42	-7,0217E-01
986,71	-3,9863E-01
987,00	1,9445E00
987,29	-1,3151E00
987,58	-2,4561E-01
987,86	-1,0739E00
988,15	0,0000E00
988,44	-3,3693E-01
988,73	1,7002E-01
989,02	2,5672E-01
989,31	-8,7138E-01
989,60	-6,6801E-01
989,89	-7,0272E-01
990,18	5,4412E-01
990,47	8,6876E-01
990,76	-6,1139E-01
991,05	-2,0847E00
991,34	2,8604E00
991,63	7,3493E-01
991,92	-1,6785E00
992,20	-1,7193E00
992,49	-1,7621E00
992,78	1,2871E00
993,07	8,8010E-01
993,36	-2,7712E00
993,65	-4,8366E-01
993,94	-8,9728E-01
994,22	-1,7265E00
994,51	2,5344E00
994,80	-2,3270E00
995,09	-1,4412E00
995,38	-1,8571E00
995,67	1,3725E00
995,95	-2,6134E00
996,24	3,7961E00
996,53	-1,9386E00
996,82	-1,2627E00
997,11	5,5724E00
997,39	-6,7347E-01
997,68	-1,0082E00
997,97	8,8453E-01
998,26	-1,4992E00
998,54	3,4373E00
998,83	6,0562E-01
999,12	-1,1792E00
999,41	1,5352E00
999,69	0,0000E00
999,98	-2,4739E00
1000,27	-1,8357E00
1000,56	-2,4168E00
1000,84	-3,5091E00
1001,13	-3,9932E00
1001,42	-5,0818E00
1001,70	-4,1868E00
1001,99	-3,7691E00
1002,28	-3,1041E00
1002,56	-3,7701E00
1002,85	-2,0477E00
1003,14	-1,3919E-01
1003,42	1,5096E00
1003,71	3,4472E00
1004,00	8,4817E00
1004,28	2,3459E00
1004,57	1,2126E00
1004,86	-1,2910E00
1005,14	-7,3924E-01
1005,43	8,8265E-01
1005,72	8,8609E-01
1006,00	-1,3269E00
1006,29	-4,0854E00
1006,57	-2,6138E00
1006,86	-3,7102E00
1007,15	1,3773E00
1007,43	1,2795E00
1007,72	2,1636E00
1008,00	-1,1987E00
1008,29	-3,1856E00
1008,57	-2,8375E00
1008,86	1,5240E00
1009,14	-4,7296E00
1009,43	-6,7958E00
1009,71	4,5907E00
1010,00	-5,4661E00
1010,29	-1,5099E00
1010,57	1,1049E00
1010,86	-2,8729E00
1011,14	-2,6803E00
1011,43	-8,5179E00
1011,71	3,4406E00
1011,99	-5,8794E00
1012,28	1,9133E00
1012,56	-1,9561E00
1012,85	-1,6678E00
1013,13	4,0707E00
1013,42	-6,0999E-01
1013,70	3,5859E00
1013,99	1,2250E00
1014,27	-1,2483E00
1014,56	-7,0546E00
1014,84	4,0898E00
1015,12	1,1562E00
1015,41	3,6579E00
1015,69	-5,8961E00
1015,98	1,8688E00
1016,26	-4,8329E00
1016,54	-3,2681E00
1016,83	-1,1193E01
1017,11	-1,2874E01
1017,39	4,5348E00
1017,68	-3,4287E00
1017,96	9,1223E00
1018,25	-1,2415E00
1018,53	-3,6943E00
1018,81	-9,8786E00
1019,10	-3,3877E00
1019,38	-1,3804E00
1019,66	5,3645E00
1019,94	-1,5599E00
1020,23	4,8487E00
1020,51	1,2695E01
1020,79	-2,5740E00
1021,08	1,1472E00
1021,36	1,0506E01
1021,64	1,0714E01
1021,93	-3,3573E00
1022,21	-3,7141E00
1022,49	-3,7141E00
>>>>>End Processed Spectral Data<<<<<
