SpectraSuite Data File
++++++++++++++++++++++++++++++++++++
Date: Mon Jul 17 13:52:06 EEST 2023
User: mkilpela
Dark Spectrum Present: Yes
Reference Spectrum Present: No
Number of Sampled Component Spectra: 1
Spectrometers: JAZA2845
Integration Time (usec): 10000 (JAZA2845)
Spectra Averaged: 1 (JAZA2845)
Boxcar Smoothing: 0 (JAZA2845)
Correct for Electrical Dark: No (JAZA2845)
Strobe/Lamp Enabled: No (JAZA2845)
Correct for Detector Non-linearity: No (JAZA2845)
Correct for Stray Light: No (JAZA2845)
Number of Pixels in Processed Spectrum: 2048
>>>>>Begin Processed Spectral Data<<<<<
340,21	-0,0000E00
340,58	-0,0000E00
340,96	-0,0000E00
341,33	-0,0000E00
341,70	0,0000E00
342,07	0,0000E00
342,45	-0,0000E00
342,82	-0,0000E00
343,19	-0,0000E00
343,57	0,0000E00
343,94	0,0000E00
344,31	0,0000E00
344,68	-0,0000E00
345,06	0,0000E00
345,43	-0,0000E00
345,80	0,0000E00
346,18	0,0000E00
346,55	-0,0000E00
346,92	0,0000E00
347,29	-0,0000E00
347,67	-0,0000E00
348,04	0,0000E00
348,41	0,0000E00
348,78	0,0000E00
349,16	-0,0000E00
349,53	0,0000E00
349,90	0,0000E00
350,27	7,1932E-02
350,64	7,0975E-01
351,02	-4,3278E-01
351,39	-7,9944E-02
351,76	2,3947E-01
352,13	3,7788E-01
352,51	9,5238E-02
352,88	-1,3348E-01
353,25	1,5291E-01
353,62	1,4795E-01
353,99	-1,6027E-02
354,37	1,8316E-02
354,74	-1,9284E-02
355,11	-1,0823E-01
355,48	6,6464E-02
355,85	4,3498E-01
356,23	-1,5595E-01
356,60	1,4206E-01
356,97	-1,7507E-02
357,34	-7,3291E-03
357,71	8,9466E-02
358,08	5,9154E-02
358,46	-1,3250E-01
358,83	6,1914E-02
359,20	-7,0909E-02
359,57	7,1779E-02
359,94	-8,3251E-02
360,31	1,4901E-01
360,69	6,6023E-03
361,06	-8,5978E-02
361,43	7,2159E-02
361,80	5,8916E-02
362,17	2,3249E-01
362,54	2,1230E-01
362,91	2,6673E-01
363,29	1,6374E-01
363,66	-1,2789E-01
364,03	3,8977E-02
364,40	-2,0697E00
364,77	-9,6906E-03
365,14	-7,8400E-03
365,51	-1,4562E-02
365,88	4,5093E-02
366,26	4,8633E-03
366,63	-4,3189E-02
367,00	-4,6026E-03
367,37	-3,2771E-02
367,74	-9,9379E-02
368,11	-5,2850E-02
368,48	1,7296E-01
368,85	6,0089E-02
369,22	-1,3249E-02
369,59	-1,9126E-01
369,97	-9,0184E-02
370,34	2,2903E-01
370,71	-1,7934E-02
371,08	-3,3001E-02
371,45	2,8909E-02
371,82	3,8828E-02
372,19	-4,0134E-02
372,56	-6,5372E-02
372,93	2,9947E-02
373,30	7,1298E-02
373,67	5,1827E-02
374,04	-7,1170E-02
374,41	5,6843E-02
374,78	-1,0521E-02
375,15	-1,2596E-02
375,52	3,0875E-03
375,89	7,0177E-02
376,26	7,9355E-03
376,63	-5,6467E-02
377,00	-3,8143E-03
377,38	2,1245E-02
377,75	-8,2192E-02
378,12	-4,6440E-02
378,49	-1,2699E-01
378,86	1,7275E-02
379,23	-3,8795E-03
379,60	0,0000E00
379,97	-7,8840E-02
380,34	4,2221E-02
380,71	-1,4576E-01
381,08	6,5782E-03
381,45	1,9601E-02
381,82	-3,7034E-02
382,19	4,4264E-03
382,55	-5,6188E-03
382,92	-2,2702E-02
383,29	-1,5332E-02
383,66	-3,5636E-02
384,03	3,8465E-02
384,40	1,0017E-01
384,77	-9,2240E-02
385,14	4,9379E-02
385,51	4,3976E-02
385,88	-4,5361E-02
386,25	1,1030E-01
386,62	-5,8568E-02
386,99	-1,7499E-02
387,36	6,4510E-02
387,73	-1,6090E-02
388,10	-2,0950E-02
388,47	1,7457E-02
388,84	-1,0282E-02
389,21	6,0371E-02
389,58	1,2089E-01
389,94	-2,4663E-02
390,31	2,4256E-02
390,68	5,4069E-02
391,05	-1,4940E-02
391,42	-5,6704E-03
391,79	2,3094E-03
392,16	-7,5217E-02
392,53	5,9807E-02
392,90	7,9968E-02
393,27	2,1105E-02
393,63	9,1231E-02
394,00	2,8560E-02
394,37	-9,7626E-02
394,74	-3,0837E-02
395,11	-2,8601E-03
395,48	9,2535E-02
395,85	3,8964E-02
396,22	2,6432E-02
396,58	7,7505E-02
396,95	9,2505E-02
397,32	-6,2297E-02
397,69	4,4316E-02
398,06	1,9661E-02
398,43	-2,6284E-02
398,80	0,0000E00
399,16	-8,2406E-02
399,53	6,4906E-02
399,90	7,5606E-02
400,27	1,1883E-01
400,64	-1,4706E-02
401,01	-3,6880E-02
401,37	-3,4175E-02
401,74	-2,3296E-03
402,11	7,6959E-02
402,48	2,6596E-02
402,85	4,9684E-02
403,22	2,2043E-02
403,58	-2,9617E-02
403,95	9,7615E-02
404,32	4,5501E-02
404,69	3,0743E-02
405,06	6,3889E-02
405,42	-1,1872E-02
405,79	4,0903E-02
406,16	-8,9447E-03
406,53	-3,0131E-02
406,89	-9,3867E-02
407,26	3,9141E-02
407,63	4,7863E-02
408,00	-2,5737E-02
408,37	1,8816E-02
408,73	9,1153E-03
409,10	4,8202E-02
409,47	5,5533E-02
409,84	-5,0871E-02
410,20	7,3334E-02
410,57	3,5383E-02
410,94	4,9553E-02
411,31	-4,2076E-02
411,67	4,8349E-02
412,04	3,5383E-02
412,41	5,0970E-02
412,77	5,3273E-02
413,14	4,5027E-02
413,51	1,6885E-02
413,88	1,3316E-02
414,24	3,7028E-02
414,61	7,4120E-02
414,98	5,2563E-02
415,34	8,9558E-02
415,71	6,8742E-02
416,08	9,0638E-02
416,45	1,2532E-01
416,81	6,2348E-02
417,18	5,5644E-02
417,55	9,0469E-02
417,91	1,0648E-01
418,28	1,9259E-01
418,65	1,5220E-01
419,01	1,6532E-01
419,38	1,9128E-01
419,75	1,8586E-01
420,11	2,3381E-01
420,48	2,2732E-01
420,85	2,6699E-01
421,21	2,4864E-01
421,58	2,2229E-01
421,95	2,2471E-01
422,31	2,9500E-01
422,68	3,5575E-01
423,05	3,5974E-01
423,41	3,8747E-01
423,78	3,8137E-01
424,15	4,2643E-01
424,51	4,5964E-01
424,88	5,5667E-01
425,24	5,3111E-01
425,61	5,3367E-01
425,98	6,3689E-01
426,34	6,9589E-01
426,71	6,8993E-01
427,07	7,8654E-01
427,44	8,9647E-01
427,81	8,8103E-01
428,17	9,1004E-01
428,54	9,4987E-01
428,90	1,0438E00
429,27	1,2152E00
429,64	1,0726E00
430,00	1,2469E00
430,37	1,3572E00
430,73	1,4329E00
431,10	1,4393E00
431,46	1,6132E00
431,83	1,6715E00
432,20	1,7756E00
432,56	1,8117E00
432,93	2,1641E00
433,29	2,1696E00
433,66	2,5007E00
434,02	2,4900E00
434,39	2,5818E00
434,75	2,7248E00
435,12	3,1238E00
435,49	3,1642E00
435,85	3,5260E00
436,22	3,7506E00
436,58	4,2161E00
436,95	4,5876E00
437,31	4,6647E00
437,68	5,3488E00
438,04	5,4859E00
438,41	5,7739E00
438,77	6,0443E00
439,14	6,6511E00
439,50	7,2651E00
439,87	7,8025E00
440,23	8,2914E00
440,60	8,4322E00
440,96	8,8562E00
441,33	9,2865E00
441,69	9,9909E00
442,06	1,0514E01
442,42	1,0854E01
442,78	1,0964E01
443,15	1,2267E01
443,51	1,2336E01
443,88	1,3183E01
444,24	1,3233E01
444,61	1,3165E01
444,97	1,4690E01
445,34	1,4321E01
445,70	1,4533E01
446,07	1,4557E01
446,43	1,5167E01
446,79	1,5453E01
447,16	1,5681E01
447,52	1,5806E01
447,89	1,5875E01
448,25	1,6494E01
448,62	1,6371E01
448,98	1,6577E01
449,34	1,6053E01
449,71	1,5982E01
450,07	1,6071E01
450,44	1,5803E01
450,80	1,5705E01
451,16	1,5078E01
451,53	1,4895E01
451,89	1,4647E01
452,25	1,4485E01
452,62	1,4376E01
452,98	1,4293E01
453,35	1,3085E01
453,71	1,2784E01
454,07	1,2734E01
454,44	1,2511E01
454,80	1,1596E01
455,16	1,1744E01
455,53	1,1255E01
455,89	1,0886E01
456,25	1,0541E01
456,62	1,0120E01
456,98	9,6435E00
457,34	9,2146E00
457,71	8,9397E00
458,07	8,6482E00
458,43	8,5302E00
458,80	7,8737E00
459,16	7,9819E00
459,52	7,2108E00
459,89	7,3252E00
460,25	6,7559E00
460,61	6,3346E00
460,98	6,1679E00
461,34	5,8005E00
461,70	5,4907E00
462,07	5,4269E00
462,43	5,1838E00
462,79	4,7148E00
463,15	4,4982E00
463,52	4,3281E00
463,88	4,3488E00
464,24	4,1944E00
464,61	3,9996E00
464,97	3,7770E00
465,33	3,6175E00
465,69	3,6048E00
466,06	3,3385E00
466,42	3,3001E00
466,78	3,0160E00
467,14	2,8530E00
467,51	2,7917E00
467,87	2,6849E00
468,23	2,5493E00
468,59	2,5121E00
468,95	2,2369E00
469,32	2,1988E00
469,68	1,9491E00
470,04	1,9714E00
470,40	1,8774E00
470,77	1,8068E00
471,13	1,6850E00
471,49	1,6112E00
471,85	1,5150E00
472,21	1,4838E00
472,58	1,3919E00
472,94	1,2922E00
473,30	1,2773E00
473,66	1,2040E00
474,02	1,1556E00
474,39	1,0708E00
474,75	1,0300E00
475,11	1,0212E00
475,47	9,7313E-01
475,83	9,3711E-01
476,19	8,0275E-01
476,56	8,2495E-01
476,92	7,5361E-01
477,28	7,5632E-01
477,64	6,7170E-01
478,00	6,7854E-01
478,36	6,2414E-01
478,72	5,9682E-01
479,09	5,4937E-01
479,45	5,1424E-01
479,81	5,0863E-01
480,17	4,6070E-01
480,53	4,7743E-01
480,89	4,4351E-01
481,25	3,8518E-01
481,61	3,8886E-01
481,97	3,7872E-01
482,34	3,5834E-01
482,70	3,2331E-01
483,06	3,3590E-01
483,42	3,0076E-01
483,78	2,9017E-01
484,14	2,8789E-01
484,50	2,5836E-01
484,86	2,5937E-01
485,22	2,2653E-01
485,58	2,2916E-01
485,94	2,3605E-01
486,31	2,0378E-01
486,67	2,1388E-01
487,03	2,1339E-01
487,39	2,0866E-01
487,75	1,9586E-01
488,11	1,8919E-01
488,47	1,5489E-01
488,83	1,6659E-01
489,19	1,6387E-01
489,55	1,3056E-01
489,91	1,4512E-01
490,27	1,4851E-01
490,63	1,4143E-01
490,99	1,1308E-01
491,35	1,0374E-01
491,71	8,9071E-02
492,07	5,9952E-02
492,43	6,8127E-02
492,79	6,8525E-02
493,15	7,3750E-02
493,51	7,3883E-02
493,87	6,2278E-02
494,23	6,2664E-02
494,59	4,5099E-02
494,95	5,7606E-02
495,31	6,2084E-02
495,67	3,4022E-02
496,03	4,1508E-02
496,39	7,0698E-02
496,75	2,6346E-02
497,11	3,9477E-02
497,47	2,7755E-02
497,83	3,5284E-02
498,19	3,7020E-02
498,55	3,2406E-02
498,91	2,2314E-02
499,27	6,2814E-03
499,63	1,7808E-02
499,98	1,1451E-02
500,34	1,3455E-02
500,70	1,4650E-02
501,06	3,4481E-02
501,42	2,9082E-02
501,78	1,1042E-02
502,14	1,5504E-03
502,50	3,5766E-03
502,86	8,0708E-03
503,22	4,4836E-03
503,58	1,5106E-02
503,94	1,6779E-02
504,29	2,7262E-02
504,65	8,9002E-03
505,01	9,4889E-03
505,37	9,9566E-03
505,73	1,5883E-02
506,09	1,8018E-02
506,45	8,8966E-03
506,81	1,2698E-02
507,16	2,2728E-02
507,52	2,9236E-03
507,88	1,9419E-03
508,24	7,8026E-03
508,60	-1,4580E-03
508,96	4,3523E-03
509,32	1,9472E-03
509,67	-2,9135E-03
510,03	1,2279E-02
510,39	7,2381E-03
510,75	5,7324E-03
511,11	1,2594E-02
511,47	1,1319E-02
511,82	-9,7032E-03
512,18	-1,2200E-02
512,54	-8,3977E-03
512,90	-1,9545E-03
513,26	-1,3235E-02
513,61	7,3005E-03
513,97	1,3029E-02
514,33	9,6448E-04
514,69	6,3268E-03
515,05	6,2995E-03
515,40	5,3504E-03
515,76	8,2257E-03
516,12	-8,2661E-03
516,48	2,0799E-02
516,83	3,9025E-03
517,19	1,9431E-03
517,55	5,8283E-03
517,91	-4,3810E-03
518,26	1,3302E-02
518,62	-2,9295E-03
518,98	-1,2271E-02
519,34	5,4430E-03
519,69	-7,7566E-03
520,05	-1,3583E-02
520,41	-1,2105E-02
520,77	-5,3307E-03
521,12	-3,4497E-03
521,48	2,2245E-02
521,84	-1,9513E-03
522,19	1,4115E-02
522,55	1,3583E-02
522,91	-9,3429E-03
523,27	7,3422E-03
523,62	5,8668E-03
523,98	-1,1174E-02
524,34	5,8684E-03
524,69	9,8187E-03
525,05	-4,9272E-04
525,41	-1,7284E-02
525,76	-3,4193E-03
526,12	-1,9630E-03
526,48	-1,1845E-02
526,83	1,3679E-02
527,19	7,6633E-03
527,55	2,4328E-03
527,90	-3,3959E-03
528,26	2,4648E-03
528,62	-4,9006E-04
528,97	1,4608E-03
529,33	1,5048E-02
529,69	9,1182E-03
530,04	1,0661E-02
530,40	-1,9036E-03
530,76	-1,4477E-03
531,11	-1,0541E-02
531,47	6,6915E-03
531,82	7,7597E-03
532,18	1,9386E-03
532,54	1,3403E-02
532,89	1,4627E-02
533,25	5,7550E-03
533,60	1,8747E-03
533,96	-6,2699E-03
534,32	1,4549E-02
534,67	2,1394E-02
535,03	1,3514E-02
535,38	4,7845E-03
535,74	-2,3758E-03
536,10	3,3221E-03
536,45	1,5001E-02
536,81	6,6314E-03
537,16	1,9860E-02
537,52	-1,1864E-02
537,87	-1,1513E-02
538,23	1,4014E-03
538,58	1,8538E-03
538,94	7,9892E-03
539,30	9,7193E-03
539,65	1,3951E-02
540,01	1,8512E-02
540,36	-5,1744E-03
540,72	-4,1491E-03
541,07	1,2427E-02
541,43	-2,3096E-03
541,78	-7,8830E-03
542,14	3,6378E-03
542,49	9,6898E-03
542,85	-5,0646E-03
543,20	3,2128E-03
543,56	1,2932E-02
543,91	7,8389E-03
544,27	2,2790E-03
544,62	-9,1052E-04
544,98	1,1785E-02
545,33	-4,5470E-04
545,69	-6,3829E-03
546,04	-4,5548E-03
546,40	-1,3841E-03
546,75	3,1454E-03
547,10	-1,2995E-02
547,46	-2,2456E-03
547,81	8,5684E-03
548,17	-9,4749E-03
548,52	-7,6884E-03
548,88	1,3945E-02
549,23	-2,6919E-02
549,59	-1,2911E-02
549,94	1,8054E-03
550,29	-5,4063E-03
550,65	2,2476E-03
551,00	1,2989E-02
551,36	8,9932E-04
551,71	-2,2400E-03
552,06	-6,2481E-03
552,42	-3,5405E-03
552,77	-1,2433E-02
553,13	-9,4627E-03
553,48	-8,9698E-04
553,83	7,2719E-03
554,19	5,3545E-03
554,54	-8,0754E-03
554,90	1,7877E-03
555,25	-1,2941E-02
555,60	6,7540E-03
555,96	8,9554E-04
556,31	7,1500E-03
556,66	-1,6948E-02
557,02	3,6080E-03
557,37	1,3524E-03
557,72	3,1607E-03
558,08	-8,5704E-03
558,43	1,6685E-02
558,79	-4,5435E-03
559,14	-1,2285E-02
559,49	1,3673E-03
559,85	-9,1726E-04
560,20	-5,4771E-03
560,55	-1,8281E-03
560,90	-9,0486E-04
561,26	5,9412E-03
561,61	1,0108E-02
561,96	2,7392E-02
562,32	2,3650E-02
562,67	1,1154E-02
563,02	4,6424E-03
563,38	-2,3446E-03
563,73	-4,1960E-03
564,08	-1,8815E-03
564,43	-4,2294E-03
564,79	6,1827E-03
565,14	0,0000E00
565,49	-1,4198E-03
565,84	-5,2059E-03
566,20	-6,6213E-03
566,55	1,2850E-02
566,90	-5,7631E-03
567,25	6,1770E-03
567,61	-5,2349E-03
567,96	-2,8632E-03
568,31	-6,2580E-03
568,66	-9,6474E-03
569,02	1,1558E-02
569,37	3,9232E-03
569,72	2,0356E-02
570,07	8,6482E-03
570,42	3,8942E-03
570,78	6,3919E-03
571,13	8,3784E-03
571,48	7,3416E-03
571,83	-6,9400E-03
572,18	5,9038E-03
572,54	7,8532E-03
572,89	-1,9761E-03
573,24	-9,3912E-03
573,59	-7,8960E-03
573,94	2,9387E-03
574,30	-1,9983E-02
574,65	4,9302E-04
575,00	-1,2792E-02
575,35	1,4405E-02
575,70	9,9487E-04
576,05	-9,9475E-03
576,40	9,4324E-03
576,76	-1,9944E-03
577,11	4,9866E-04
577,46	6,9417E-03
577,81	4,9953E-04
578,16	-2,5070E-03
578,51	9,0555E-03
578,86	2,4837E-03
579,21	2,1230E-02
579,57	0,0000E00
579,92	0,0000E00
580,27	-1,3597E-02
580,62	-9,2120E-03
580,97	-2,2239E-02
581,32	-1,5224E-02
581,67	4,0422E-03
582,02	-2,0075E-03
582,37	0,0000E00
582,72	4,5512E-03
583,08	-2,5431E-03
583,43	-3,0440E-03
583,78	1,1732E-02
584,13	8,6091E-03
584,48	-8,5538E-03
584,83	1,9358E-02
585,18	1,7371E-02
585,53	2,0389E-03
585,88	0,0000E00
586,23	2,0463E-02
586,58	-6,0861E-03
586,93	1,0711E-02
587,28	-8,7039E-03
587,63	1,8906E-02
587,98	2,5571E-03
588,33	1,0170E-02
588,68	1,5367E-02
589,03	1,5262E-03
589,38	2,3528E-02
589,73	-6,1729E-03
590,08	1,0240E-02
590,43	5,1377E-04
590,78	-1,7289E-02
591,13	-1,0279E-02
591,48	-5,0995E-03
591,83	-1,4371E-02
592,18	-1,0250E-03
592,53	1,0284E-03
592,88	1,1831E-02
593,23	0,0000E00
593,58	-8,7229E-03
593,93	-1,5587E-03
594,28	-1,0266E-02
594,63	-1,0409E-02
594,98	-6,2252E-03
595,33	2,2136E-02
595,68	-2,0799E-03
596,02	1,1972E-02
596,37	-5,2407E-04
596,72	4,7149E-03
597,07	-1,3001E-02
597,42	7,8035E-03
597,77	-7,8429E-03
598,12	5,7546E-03
598,47	1,5816E-03
598,82	1,5752E-03
599,17	5,2250E-03
599,52	-8,4346E-03
599,86	1,8442E-02
600,21	5,8252E-03
600,56	-3,6767E-03
600,91	5,2943E-04
601,26	9,0760E-03
601,61	1,5991E-02
601,96	-1,2178E-02
602,30	-9,0432E-03
602,65	-5,3320E-04
603,00	-1,8678E-02
603,35	0,0000E00
603,70	1,1924E-02
604,05	1,0288E-02
604,40	-1,4024E-02
604,74	3,2449E-03
605,09	1,7875E-02
605,44	2,1314E-02
605,79	-8,7476E-03
606,14	7,6317E-03
606,48	1,8521E-02
606,83	-4,9148E-03
607,18	1,8272E-02
607,53	7,7067E-03
607,88	1,7715E-02
608,22	7,7403E-03
608,57	9,4664E-03
608,92	-5,5974E-03
609,27	8,9845E-03
609,62	-1,1794E-02
609,96	-3,3920E-03
610,31	-6,2292E-03
610,66	5,6674E-03
611,01	-5,6638E-03
611,35	1,7062E-03
611,70	3,4605E-03
612,05	-9,7077E-03
612,40	-3,4656E-03
612,74	1,7242E-02
613,09	-4,0570E-03
613,44	9,8517E-03
613,79	-4,6159E-03
614,13	2,0697E-02
614,48	7,0105E-03
614,83	3,5355E-03
615,17	1,3560E-02
615,52	-1,1805E-03
615,87	1,0031E-02
616,22	5,9370E-04
616,56	-5,9620E-03
616,91	4,6517E-02
617,26	1,6038E-02
617,60	2,3999E-03
617,95	-1,2001E-03
618,30	3,6343E-03
618,64	-8,3824E-03
618,99	6,0499E-03
619,34	6,1002E-03
619,68	-9,0605E-03
620,03	-1,4528E-02
620,38	-7,3464E-03
620,72	3,6661E-03
621,07	1,3411E-02
621,42	3,0887E-03
621,76	1,1594E-02
622,11	-5,5258E-03
622,45	-1,3654E-02
622,80	-6,1938E-04
623,15	-3,0821E-03
623,49	-6,2563E-04
623,84	-1,1913E-02
624,18	-5,6185E-03
624,53	2,4394E-02
624,88	2,0590E-02
625,22	6,3094E-04
625,57	1,5662E-02
625,91	-3,7766E-03
626,26	-6,3418E-03
626,61	5,0363E-03
626,95	-8,2819E-03
627,30	-2,5555E-03
627,64	1,9211E-03
627,99	1,2894E-03
628,33	-1,2725E-03
628,68	-2,8290E-02
629,03	-1,0904E-02
629,37	9,0881E-03
629,72	2,5795E-03
630,06	2,5504E-03
630,41	-6,5267E-03
630,75	-5,8598E-03
631,10	-1,9630E-03
631,44	2,6014E-03
631,79	-2,6164E-03
632,13	-3,9574E-03
632,48	-4,5769E-03
632,82	3,3044E-03
633,17	-1,1964E-02
633,51	0,0000E00
633,86	1,4024E-02
634,20	-1,9998E-03
634,55	1,2585E-02
634,89	-4,0134E-03
635,24	8,0132E-03
635,58	-1,9933E-02
635,93	1,8882E-02
636,27	2,0132E-03
636,62	3,3712E-03
636,96	-4,0197E-03
637,30	2,0922E-02
637,65	-2,0319E-03
637,99	-2,7036E-03
638,34	4,7281E-03
638,68	1,4941E-02
639,03	4,7375E-03
639,37	-1,4264E-02
639,71	-2,1778E-02
640,06	-1,5711E-02
640,40	2,1374E-02
640,75	1,3729E-03
641,09	-3,4182E-03
641,44	1,4472E-02
641,78	-6,1717E-03
642,12	-6,1979E-03
642,47	1,8783E-02
642,81	6,8599E-03
643,15	8,3776E-03
643,50	2,0004E-02
643,84	-4,1681E-03
644,19	3,1365E-02
644,53	1,7591E-02
644,87	1,8097E-02
645,22	1,7543E-02
645,56	1,1244E-02
645,90	2,1034E-03
646,25	-1,3999E-03
646,59	-1,4831E-02
646,93	-8,5484E-03
647,28	-6,3338E-03
647,62	2,1275E-03
647,96	-5,0149E-03
648,31	5,7010E-03
648,65	-8,5816E-03
648,99	-1,0008E-02
649,34	-1,3060E-02
649,68	1,2195E-02
650,02	2,0180E-02
650,36	-3,6237E-03
650,71	7,2241E-03
651,05	8,7162E-03
651,39	1,0873E-02
651,74	-2,4758E-02
652,08	1,8187E-02
652,42	-6,5593E-03
652,76	-7,3588E-04
653,11	1,4569E-02
653,45	0,0000E00
653,79	1,4783E-02
654,13	1,9888E-02
654,48	1,7815E-02
654,82	1,8654E-02
655,16	-1,4953E-03
655,50	-3,7383E-03
655,85	6,7105E-03
656,19	6,7389E-03
656,53	-2,7836E-02
656,87	-1,2907E-02
657,21	1,8903E-02
657,56	-1,4393E-02
657,90	-1,2920E-02
658,24	-9,9022E-03
658,58	1,2864E-02
658,92	3,7990E-03
659,27	9,1535E-03
659,61	6,9299E-03
659,95	-3,8411E-03
660,29	2,3058E-03
660,63	-1,3900E-02
660,97	-1,2363E-02
661,32	-4,6595E-03
661,66	-2,1049E-02
662,00	-2,8785E-02
662,34	-7,0256E-03
662,68	-1,4883E-02
663,02	0,0000E00
663,37	2,5131E-02
663,71	7,1045E-03
664,05	1,4974E-02
664,39	-2,1501E-02
664,73	-8,8029E-03
665,07	7,9995E-03
665,41	-2,5575E-02
665,75	-1,1980E-02
666,09	-8,9103E-03
666,44	2,6850E-02
666,78	1,7024E-02
667,12	3,6684E-02
667,46	2,4322E-03
667,80	8,1623E-03
668,14	1,8072E-02
668,48	1,1568E-02
668,82	4,9453E-03
669,16	7,5165E-03
669,50	0,0000E00
669,84	1,9204E-02
670,18	0,0000E00
670,52	1,6831E-03
670,86	5,3352E-02
671,20	-4,2422E-03
671,54	4,2107E-03
671,88	5,9143E-03
672,22	3,2130E-02
672,57	-6,0112E-03
672,91	4,9788E-02
673,25	2,6724E-02
673,59	1,4632E-02
673,93	-5,2210E-03
674,27	2,5082E-02
674,61	-7,0263E-03
674,95	1,7363E-02
675,28	2,2761E-02
675,62	5,2245E-03
675,96	2,0328E-02
676,30	-7,9621E-03
676,64	5,3213E-03
676,98	-2,3984E-02
677,32	-1,4363E-02
677,66	-1,1764E-02
678,00	-5,3945E-03
678,34	3,5340E-02
678,68	9,0627E-03
679,02	-1,4575E-02
679,36	1,6298E-02
679,70	1,1829E-02
680,04	1,4565E-02
680,38	-1,4650E-02
680,72	-2,7642E-03
681,06	-1,4765E-02
681,39	-1,4829E-02
681,73	2,1297E-02
682,07	-8,4112E-03
682,41	-9,3940E-03
682,75	1,0412E-02
683,09	-1,3070E-02
683,43	-8,4714E-03
683,77	-1,0448E-02
684,11	-9,4748E-03
684,44	-2,4947E-02
684,78	-2,2010E-02
685,12	1,7304E-02
685,46	-2,4836E-02
685,80	4,7925E-03
686,14	-9,6623E-04
686,48	1,9484E-03
686,81	-2,2466E-02
687,15	2,3301E-02
687,49	1,1801E-02
687,83	-3,8883E-03
688,17	4,5664E-02
688,51	-2,8601E-02
688,84	4,0024E-03
689,18	3,9380E-03
689,52	-1,3979E-02
689,86	-6,0036E-03
690,20	-9,9493E-04
690,53	-2,9267E-02
690,87	3,0093E-03
691,21	1,2152E-02
691,55	-1,1095E-02
691,88	-3,2845E-02
692,22	1,7325E-02
692,56	1,7343E-02
692,90	2,0364E-03
693,23	7,1320E-03
693,57	-1,7431E-02
693,91	-2,3797E-02
694,25	-1,0363E-02
694,58	3,0099E-02
694,92	9,3846E-03
695,26	2,2037E-02
695,60	2,2208E-02
695,93	2,9211E-02
696,27	0,0000E00
696,61	4,9569E-02
696,94	9,4415E-03
697,28	6,0253E-02
697,62	4,0041E-02
697,96	1,4867E-02
698,29	3,2715E-02
698,63	1,7056E-02
698,97	3,0199E-02
699,30	-2,8717E-02
699,64	5,3669E-03
699,98	-5,3921E-03
700,31	8,5885E-03
700,65	1,0667E-03
700,99	-9,8263E-03
701,32	-2,0675E-02
701,66	0,0000E00
702,00	-1,2999E-02
702,33	-3,5949E-02
702,67	1,6337E-02
703,00	1,4265E-02
703,34	4,0496E-02
703,68	5,5091E-03
704,01	-1,6697E-02
704,35	4,2140E-02
704,69	4,4411E-03
705,02	4,4400E-03
705,36	-2,3305E-02
705,69	1,5541E-02
706,03	2,2354E-03
706,36	-5,5699E-03
706,70	4,2007E-02
707,04	-2,2238E-03
707,37	2,6975E-02
707,71	6,7846E-03
708,04	-2,6102E-02
708,38	-3,0595E-02
708,71	-3,3822E-02
709,05	-2,8296E-02
709,39	-2,2926E-02
709,72	6,8661E-03
710,06	-4,5397E-03
710,39	-6,8808E-03
710,73	3,6431E-02
711,06	-3,4806E-03
711,40	-2,4074E-02
711,73	-2,8863E-02
712,07	6,9343E-03
712,40	-1,0406E-02
712,74	1,6170E-02
713,07	4,3914E-02
713,41	-2,2166E-02
713,74	-1,6271E-02
714,08	2,8016E-02
714,41	1,9950E-02
714,75	2,3590E-03
715,08	-1,5211E-02
715,42	2,7278E-02
715,75	7,0856E-03
716,08	4,7297E-03
716,42	1,1914E-03
716,75	-8,2905E-03
717,09	-2,2773E-02
717,42	-5,9942E-03
717,76	-3,5864E-03
718,09	1,2035E-03
718,43	-2,1683E-02
718,76	1,7966E-02
719,09	2,4117E-03
719,43	-4,1214E-02
719,76	7,2961E-03
720,10	-1,3273E-02
720,43	-1,7078E-02
720,76	-1,7068E-02
721,10	-8,5783E-03
721,43	2,1999E-02
721,76	-1,2340E-02
722,10	-2,0884E-02
722,43	6,7198E-02
722,77	2,8471E-02
723,10	8,6992E-03
723,43	3,3811E-02
723,77	-2,7331E-02
724,10	0,0000E00
724,43	-3,1155E-02
724,77	8,7410E-03
725,10	1,8995E-02
725,43	-1,0035E-02
725,77	-2,9000E-02
726,10	-1,0103E-02
726,43	4,2872E-02
726,77	6,3294E-03
727,10	2,0319E-02
727,43	-1,2699E-03
727,77	-3,4527E-02
728,10	0,0000E00
728,43	-3,1040E-02
728,76	1,9389E-02
729,10	-1,0425E-02
729,43	1,6927E-02
729,76	0,0000E00
730,09	3,5344E-02
730,43	-3,1657E-02
730,76	-7,9582E-02
731,09	-5,2869E-03
731,42	1,1786E-02
731,76	4,6667E-02
732,09	6,6114E-03
732,42	1,3295E-02
732,75	-1,4758E-02
733,09	-7,4679E-02
733,42	-2,4244E-02
733,75	-2,5734E-02
734,08	1,4999E-02
734,41	-2,4432E-02
734,75	-9,5605E-03
735,08	-3,6702E-02
735,41	-6,5581E-02
735,74	-4,6777E-02
736,07	-2,3284E-02
736,41	8,2857E-03
736,74	-1,9483E-02
737,07	-1,6662E-02
737,40	-3,7638E-02
737,73	2,7671E-03
738,06	3,1089E-02
738,40	5,6591E-03
738,73	-1,6840E-02
739,06	-9,9600E-03
739,39	7,1368E-03
739,72	-1,5679E-02
740,05	-2,5651E-02
740,38	1,5922E-02
740,72	7,2464E-03
741,05	5,7561E-03
741,38	-1,4517E-02
741,71	-2,9249E-02
742,04	-7,3526E-03
742,37	-1,4643E-02
742,70	-4,3833E-03
743,03	1,4743E-03
743,36	1,1877E-02
743,69	-2,3559E-02
744,02	2,2489E-02
744,36	1,6487E-02
744,69	-7,4746E-03
745,02	4,1909E-02
745,35	2,7478E-02
745,68	-4,5575E-02
746,01	-2,7302E-02
746,34	-2,4270E-02
746,67	-3,0655E-03
747,00	-3,0962E-03
747,33	3,8865E-02
747,66	5,6985E-02
747,99	4,2221E-02
748,32	2,1957E-02
748,65	-1,5831E-03
748,98	2,3311E-02
749,31	5,5044E-02
749,64	-1,7539E-02
749,97	-2,3749E-02
750,30	6,3599E-02
750,63	8,0115E-03
750,96	-2,8879E-02
751,29	2,7508E-02
751,62	3,0763E-02
751,95	2,4463E-02
752,28	4,2398E-02
752,61	3,3063E-03
752,94	2,1641E-02
753,27	5,9390E-02
753,60	2,3309E-02
753,92	-2,8377E-02
754,25	-1,8314E-02
754,58	2,5236E-02
754,91	-1,1769E-02
755,24	-1,3560E-02
755,57	-1,8555E-02
755,90	1,3648E-02
756,23	1,5425E-02
756,56	1,0227E-02
756,89	4,1357E-02
757,22	-2,9409E-02
757,54	4,1559E-02
757,87	6,6434E-02
758,20	1,9118E-02
758,53	4,2431E-02
758,86	-2,6398E-02
759,19	4,2480E-02
759,52	-1,4103E-02
759,84	-1,2600E-02
760,17	8,9678E-03
760,50	-5,3973E-03
760,83	2,3586E-02
761,16	5,9810E-02
761,49	-3,6785E-03
761,81	5,7191E-02
762,14	-4,6262E-02
762,47	1,6469E-02
762,80	-1,2916E-02
763,13	1,8549E-03
763,45	-5,0642E-02
763,78	-5,6070E-03
764,11	-3,0026E-02
764,44	4,7008E-02
764,77	-4,6875E-02
765,09	3,0297E-02
765,42	6,3086E-02
765,75	5,5128E-02
766,08	0,0000E00
766,40	2,1219E-02
766,73	-5,9757E-02
767,06	-2,9228E-02
767,39	6,4238E-02
767,71	-5,8825E-03
768,04	-2,3608E-02
768,37	-1,1812E-02
768,70	3,5820E-02
769,02	7,9575E-03
769,35	8,0408E-02
769,68	-5,0082E-02
770,00	-2,7896E-02
770,33	-5,9480E-03
770,66	6,6178E-02
770,99	4,0950E-02
771,31	-1,8389E-02
771,64	-4,8670E-02
771,97	-5,3287E-02
772,29	-3,4994E-02
772,62	-3,3359E-02
772,95	3,9499E-02
773,27	2,2973E-02
773,60	7,6045E-02
773,93	-3,9220E-02
774,25	3,1170E-02
774,58	7,3503E-02
774,90	1,2756E-02
775,23	1,3665E-01
775,56	6,4379E-03
775,88	2,7643E-02
776,21	4,1016E-02
776,54	8,0269E-02
776,86	-4,9836E-02
777,19	-1,9501E-02
777,51	0,0000E00
777,84	-6,5626E-03
778,16	-2,2184E-03
778,49	-2,1944E-02
778,82	-7,9314E-02
779,14	-5,2849E-02
779,47	-1,0737E-01
779,79	-6,6912E-03
780,12	-1,3436E-02
780,44	-4,9849E-02
780,77	-5,1708E-02
781,10	-2,5061E-02
781,42	-4,5315E-03
781,75	-9,3026E-03
782,07	6,0486E-02
782,40	1,1581E-02
782,72	0,0000E00
783,05	-3,7371E-02
783,37	4,9375E-02
783,70	-4,9627E-02
784,02	-5,6862E-02
784,35	4,9594E-02
784,67	8,5349E-02
785,00	4,5339E-02
785,32	7,2561E-03
785,65	-6,8227E-02
785,97	-1,0983E-01
786,30	-4,8184E-02
786,62	-1,9288E-02
786,94	-5,1644E-02
787,27	-8,2774E-02
787,59	-2,4611E-02
787,92	1,7032E-02
788,24	-1,3765E-01
788,57	2,2136E-02
788,89	-5,4832E-02
789,22	-7,3597E-03
789,54	-3,9076E-02
789,86	2,7216E-02
790,19	3,6983E-02
790,51	0,0000E00
790,84	-7,3834E-02
791,16	1,9626E-02
791,48	3,9979E-02
791,81	2,4755E-02
792,13	7,3828E-03
792,45	6,7155E-02
792,78	5,2899E-02
793,10	-5,7096E-02
793,43	-1,5014E-02
793,75	6,4899E-02
794,07	4,9721E-03
794,40	2,2183E-02
794,72	-6,2303E-02
795,04	-1,9890E-02
795,37	-4,6766E-02
795,69	-2,5075E-03
796,01	-6,8871E-02
796,34	-4,6822E-02
796,66	-6,9369E-02
796,98	4,8845E-02
797,30	-2,4727E-02
797,63	5,3976E-02
797,95	-6,2798E-02
798,27	9,7535E-03
798,60	5,3141E-02
798,92	5,4525E-02
799,24	1,3745E-01
799,56	4,4372E-02
799,89	4,1738E-02
800,21	3,6874E-02
800,53	7,6601E-02
800,85	7,3539E-02
801,18	6,6067E-02
801,50	5,4211E-02
801,82	-1,7073E-02
802,14	-8,5900E-02
802,47	-7,3172E-03
802,79	-3,9488E-02
803,11	1,2336E-02
803,43	-5,3403E-02
803,75	-3,6968E-02
804,08	9,8297E-03
804,40	1,2229E-02
804,72	1,4616E-02
805,04	-2,1880E-02
805,36	-3,9496E-02
805,69	9,9352E-03
806,01	2,4742E-03
806,33	-5,2005E-02
806,65	2,9601E-02
806,97	0,0000E00
807,29	0,0000E00
807,62	1,1289E-01
807,94	-7,4791E-02
808,26	-5,2535E-02
808,58	5,8098E-02
808,90	5,2979E-02
809,22	4,6016E-02
809,54	1,0265E-01
809,86	-7,0709E-02
810,18	7,5170E-03
810,51	-4,5567E-02
810,83	1,0271E-01
811,15	-5,3586E-02
811,47	-4,3807E-02
811,79	-2,0612E-02
812,11	-1,4648E-01
812,43	-2,3450E-02
812,75	-5,7246E-02
813,07	-5,1997E-03
813,39	-3,1151E-02
813,71	2,1158E-02
814,03	5,4463E-02
814,35	-8,6244E-02
814,67	4,2322E-02
814,99	1,5829E-02
815,31	3,2065E-02
815,64	-1,3178E-02
815,96	-1,8532E-02
816,28	2,1315E-02
816,60	-2,4178E-02
816,92	-1,6275E-02
817,24	2,7083E-03
817,56	7,6018E-02
817,88	5,2377E-02
818,19	2,7275E-02
818,51	-7,0685E-02
818,83	4,9427E-02
819,15	4,1225E-02
819,47	-4,0880E-02
819,79	4,4108E-02
820,11	-5,7340E-02
820,43	4,7178E-02
820,75	5,5701E-02
821,07	3,3349E-02
821,39	4,7275E-02
821,71	8,9556E-02
822,03	-5,9456E-02
822,35	1,4103E-02
822,67	-6,8938E-02
822,99	3,1163E-02
823,31	-5,1370E-02
823,62	1,4687E-01
823,94	3,6929E-02
824,26	5,2071E-02
824,58	-2,0247E-02
824,90	3,7434E-02
825,22	2,0608E-02
825,54	2,3463E-02
825,86	-4,7109E-02
826,17	-7,9280E-02
826,49	3,2518E-02
826,81	1,1574E-01
827,13	1,2584E-01
827,45	2,6778E-02
827,77	4,1963E-02
828,08	1,0491E-01
828,40	-1,2069E-02
828,72	1,2516E-01
829,04	0,0000E00
829,36	6,7860E-02
829,67	7,6459E-02
829,99	5,8229E-02
830,31	-6,5917E-02
830,63	1,0366E-01
830,95	2,7839E-02
831,26	5,6843E-02
831,58	9,3826E-03
831,90	5,7007E-02
832,22	-6,0477E-02
832,53	8,9021E-02
832,85	-4,5090E-02
833,17	4,8796E-02
833,49	9,6379E-03
833,80	5,5013E-02
834,12	-3,9160E-02
834,44	3,9355E-02
834,76	-1,6224E-02
835,07	-1,3138E-02
835,39	1,1840E-01
835,71	-5,9250E-02
836,02	-1,1277E-01
836,34	4,6898E-02
836,66	8,9617E-02
836,97	-4,6182E-02
837,29	-4,6264E-02
837,61	-1,2427E-01
837,93	-4,7370E-02
838,24	-1,1762E-01
838,56	-1,0562E-01
838,88	3,4013E-03
839,19	-1,0222E-02
839,51	6,8272E-02
839,82	-9,3714E-02
840,14	3,8310E-02
840,46	-3,4427E-03
840,77	1,2876E-01
841,09	2,7883E-02
841,41	2,4493E-02
841,72	8,1710E-02
842,04	3,1995E-02
842,35	7,8083E-02
842,67	1,3785E-01
842,99	-7,8507E-02
843,30	-2,1385E-02
843,62	3,6255E-02
843,93	-4,0284E-02
844,25	-1,0856E-02
844,56	-3,6344E-03
844,88	1,4412E-01
845,20	-3,3123E-02
845,51	-6,6035E-02
845,83	1,1197E-02
846,14	1,1990E-01
846,46	5,2030E-02
846,77	-9,3245E-02
847,09	1,3283E-01
847,40	-3,0508E-02
847,72	3,8352E-03
848,03	1,1388E-02
848,35	-7,6193E-02
848,66	1,2145E-01
848,98	1,4693E-01
849,29	9,5291E-02
849,61	2,3377E-02
849,92	-1,1671E-02
850,24	-5,9278E-02
850,55	-1,1696E-02
850,87	-2,7198E-02
851,18	9,9032E-02
851,50	6,0577E-02
851,81	7,5887E-02
852,12	3,2239E-02
852,44	-8,0287E-03
852,75	8,0907E-03
853,07	-4,5057E-02
853,38	-1,6326E-02
853,70	-4,5321E-02
854,01	-4,5011E-02
854,32	-6,3003E-02
854,64	-7,1003E-02
854,95	1,0846E-01
855,27	2,0726E-02
855,58	0,0000E00
855,89	-1,2843E-02
856,21	-1,1106E-01
856,52	5,1098E-02
856,83	-1,2384E-01
857,15	-6,4454E-02
857,46	2,5923E-02
857,77	1,1323E-01
858,09	8,7146E-02
858,40	6,5634E-02
858,71	4,3540E-02
859,03	3,1050E-02
859,34	1,2712E-01
859,65	4,4562E-03
859,97	-8,9365E-03
860,28	8,0867E-02
860,59	-8,5725E-02
860,91	-1,1761E-01
861,22	-4,9964E-02
861,53	-1,6395E-01
861,84	0,0000E00
862,16	-8,2584E-02
862,47	-4,1867E-02
862,78	-1,5608E-01
863,10	1,0339E-01
863,41	-1,4009E-02
863,72	-2,3963E-01
864,03	1,8835E-02
864,35	1,0388E-01
864,66	-6,2216E-02
864,97	-7,1407E-02
865,28	3,3502E-02
865,59	1,9404E-01
865,91	4,4011E-02
866,22	-4,3305E-02
866,53	-7,8494E-02
866,84	-1,4644E-02
867,15	-1,2293E-01
867,47	-8,4455E-02
867,78	6,9785E-02
868,09	-7,4895E-02
868,40	9,0129E-02
868,71	-7,0729E-02
869,02	7,5543E-02
869,34	5,0549E-02
869,65	-2,0697E-02
869,96	-1,0275E-02
870,27	-1,5399E-02
870,58	1,0319E-01
870,89	-4,6816E-02
871,20	3,6956E-02
871,52	-9,8949E-02
871,83	-3,1235E-02
872,14	1,1088E-01
872,45	0,0000E00
872,76	-5,8712E-02
873,07	1,0254E-01
873,38	6,5514E-02
873,69	-1,3797E-01
874,00	1,3193E-01
874,31	1,0963E-02
874,62	-4,4016E-02
874,94	8,2881E-02
875,25	2,2224E-01
875,56	-2,8058E-02
875,87	-8,4586E-02
876,18	1,7481E-01
876,49	-5,6196E-02
876,80	6,8316E-02
877,11	-1,1363E-02
877,42	1,0820E-01
877,73	-1,9763E-01
878,04	1,1399E-01
878,35	-2,9028E-02
878,66	1,5642E-01
878,97	-1,1787E-01
879,28	3,4749E-02
879,59	4,7120E-02
879,90	5,8605E-03
880,21	4,1424E-02
880,52	-2,9543E-02
880,83	-5,8847E-03
881,14	-3,0106E-02
881,45	1,1728E-01
881,76	5,3225E-02
882,07	1,8410E-01
882,37	2,9590E-01
882,68	3,5673E-02
882,99	1,6089E-01
883,30	3,5928E-02
883,61	-3,5399E-02
883,92	-1,1320E-01
884,23	4,1742E-02
884,54	9,6111E-02
884,85	-1,4067E-01
885,16	-7,7793E-02
885,47	-5,9799E-02
885,77	4,2617E-02
886,08	-6,0064E-02
886,39	-9,3746E-02
886,70	2,9228E-01
887,01	-5,3584E-02
887,32	-1,7701E-01
887,63	1,7752E-01
887,93	1,0003E-01
888,24	3,6229E-02
888,55	2,2704E-01
888,86	8,4326E-02
889,17	3,6474E-02
889,47	-2,3180E-01
889,78	1,4159E-01
890,09	-2,0198E-01
890,40	1,8044E-02
890,71	-6,6029E-02
891,01	-7,7648E-02
891,32	1,8013E-01
891,63	-7,2688E-02
891,94	-3,0056E-02
892,25	4,7897E-02
892,55	-4,7499E-02
892,86	-1,6706E-01
893,17	9,0051E-02
893,48	1,4995E-01
893,78	1,3074E-01
894,09	2,2304E-01
894,40	2,1182E-01
894,70	-2,3018E-01
895,01	2,1444E-01
895,32	-1,7915E-02
895,63	-5,9935E-03
895,93	4,2030E-02
896,24	-4,8858E-02
896,55	-1,3387E-01
896,85	1,6881E-01
897,16	9,0043E-02
897,47	1,0711E-01
897,77	1,2765E-01
898,08	4,2785E-02
898,39	8,5653E-02
898,69	5,5037E-02
899,00	7,3550E-02
899,31	-7,8364E-02
899,61	2,4900E-02
899,92	-4,9240E-02
900,23	1,0392E-01
900,53	9,3701E-02
900,84	-3,1343E-02
901,14	-3,7439E-02
901,45	-2,6349E-01
901,76	1,8104E-01
902,06	-2,1318E-01
902,37	-1,0758E-01
902,67	5,6806E-02
902,98	-1,2888E-02
903,29	-8,8277E-02
903,59	-1,3731E-01
903,90	-1,1391E-01
904,20	1,9392E-01
904,51	7,8468E-02
904,81	8,2534E-02
905,12	8,9261E-02
905,42	1,8384E-01
905,73	1,1528E-01
906,03	1,9378E-02
906,34	-1,1769E-01
906,64	1,2558E-01
906,95	-7,9080E-02
907,25	-5,3123E-02
907,56	1,3498E-02
907,86	1,3389E-02
908,17	-4,7091E-02
908,47	-1,8204E-01
908,78	3,3974E-02
909,08	-8,1062E-02
909,39	-2,3878E-01
909,69	-1,3627E-01
910,00	-1,6546E-01
910,30	1,2477E-01
910,61	-1,2081E-01
910,91	8,9799E-02
911,21	1,5410E-01
911,52	6,3670E-02
911,82	-8,5109E-02
912,13	-1,4831E-01
912,43	-8,5831E-02
912,74	-2,2411E-01
913,04	1,4443E-02
913,34	0,0000E00
913,65	7,3132E-02
913,95	-2,8070E-01
914,25	-5,9322E-02
914,56	-1,6058E-01
914,86	1,1887E-01
915,17	-4,5111E-02
915,47	2,2432E-02
915,77	5,2937E-02
916,08	6,8920E-02
916,38	5,3201E-02
916,68	1,3034E-01
916,99	-6,2332E-02
917,29	3,7789E-01
917,59	-1,0138E-01
917,90	-1,9841E-01
918,20	-9,5255E-02
918,50	-2,3694E-02
918,80	-1,5818E-02
919,11	-1,5798E-01
919,41	2,3733E-02
919,71	1,8373E-01
920,02	7,3244E-02
920,32	0,0000E00
920,62	1,7213E-01
920,92	1,2439E-01
921,23	1,4946E-01
921,53	1,8234E-01
921,83	-4,2512E-02
922,13	1,8467E-01
922,44	2,5964E-02
922,74	0,0000E00
923,04	-2,4937E-01
923,34	7,7621E-02
923,64	4,2988E-02
923,95	-3,4738E-02
924,25	-1,4893E-01
924,55	1,6123E-01
924,85	2,4885E-01
925,15	1,3965E-01
925,46	3,6960E-01
925,76	3,0855E-01
926,06	-3,5052E-01
926,36	-2,5292E-01
926,66	-1,1819E-01
926,96	3,6764E-02
927,26	1,1999E-01
927,57	3,5231E-01
927,87	7,4690E-02
928,17	-5,6297E-02
928,47	-2,3639E-01
928,77	1,9253E-01
929,07	-2,1224E-01
929,37	7,6562E-02
929,67	-1,8138E-01
929,98	0,0000E00
930,28	2,1908E-01
930,58	-2,4742E-01
930,88	2,1702E-01
931,18	1,0105E-02
931,48	-7,0347E-02
931,78	-2,2696E-01
932,08	-1,5424E-01
932,38	-2,2726E-01
932,68	1,7777E-01
932,98	-2,1722E-01
933,28	4,2269E-02
933,58	-1,5777E-01
933,88	4,3037E-01
934,18	-1,3852E-01
934,48	1,1635E-01
934,78	-2,1716E-01
935,08	-2,6205E-01
935,38	6,4737E-02
935,68	-3,0000E-01
935,98	-4,4072E-01
936,28	-2,6571E-01
936,58	-1,9074E-01
936,88	-3,4582E-01
937,18	1,1230E-02
937,48	-1,9212E-01
937,78	-1,1309E-02
938,08	-4,6198E-02
938,38	-2,4591E-01
938,68	-1,0678E-01
938,98	3,5089E-02
939,28	-2,7600E-01
939,57	-5,9693E-02
939,87	-3,0350E-01
940,17	-1,2080E-02
940,47	-2,2072E-01
940,77	1,7320E-01
941,07	-4,1806E-01
941,37	-4,2162E-01
941,67	-5,4439E-01
941,97	-2,1380E-01
942,26	3,0587E-01
942,56	1,0140E-01
942,86	-2,4494E-01
943,16	4,1684E-01
943,46	3,8923E-02
943,76	4,7432E-01
944,06	4,5806E-01
944,35	-3,1691E-01
944,65	5,2213E-01
944,95	1,4470E-01
945,25	1,4010E-01
945,55	1,8924E-01
945,84	-2,7575E-02
946,14	5,9357E-01
946,44	3,4323E-01
946,74	2,5591E-01
947,03	-1,7980E-01
947,33	-3,6339E-01
947,63	1,4306E-02
947,93	1,4312E-02
948,23	3,8530E-01
948,52	-7,3540E-02
948,82	8,6484E-02
949,12	-2,1765E-01
949,41	-1,1783E-01
949,71	-3,2056E-01
950,01	2,8202E-01
950,31	2,2219E-01
950,60	4,0235E-01
950,90	-2,4241E-01
951,20	0,0000E00
951,49	-1,9945E-01
951,79	9,5067E-02
952,09	-5,2580E-01
952,38	-4,8066E-01
952,68	5,7548E-01
952,98	5,5045E-01
953,27	1,0358E00
953,57	3,8730E-01
953,87	3,9304E-01
954,16	5,0248E-02
954,46	3,9589E-01
954,76	4,6569E-01
955,05	-1,9900E-01
955,35	-2,0190E-01
955,64	-1,5296E-01
955,94	-3,4329E-02
956,24	3,3406E-01
956,53	4,0910E-01
956,83	-1,2365E-01
957,12	-7,1582E-01
957,42	2,3084E-01
957,72	-3,2585E-01
958,01	2,3150E-01
958,31	3,5973E-02
958,60	4,3883E-01
958,90	-2,2139E-01
959,19	-3,5649E-01
959,49	4,7563E-01
959,78	7,1279E-01
960,08	1,1110E-01
960,37	-1,5507E-01
960,67	-9,7204E-01
960,96	-2,1379E-01
961,26	-3,9732E-02
961,55	1,9978E-02
961,85	-1,3498E-01
962,14	-4,7093E-01
962,44	5,7876E-01
962,73	-1,8095E-01
963,03	1,4264E-01
963,32	-6,7245E-01
963,62	-4,5707E-01
963,91	6,3128E-01
964,21	2,3267E-01
964,50	2,1196E-02
964,80	3,3492E-01
965,09	1,7671E-01
965,38	-1,1031E-01
965,68	8,5821E-02
965,97	3,1258E-01
966,27	-3,5617E-01
966,56	-1,1081E-01
966,85	2,0344E-01
967,15	3,8269E-01
967,44	1,3252E-01
967,74	1,8637E-01
968,03	5,5758E-01
968,32	1,8892E-01
968,62	-4,2146E-01
968,91	4,2417E-01
969,20	-2,4156E-02
969,50	5,9563E-01
969,79	-1,2200E-01
970,08	1,0066E00
970,38	-2,4172E-02
970,67	2,1400E-01
970,96	-2,9450E-01
971,26	-1,0064E-01
971,55	-3,1519E-01
971,84	-3,6413E-01
972,13	-5,1148E-02
972,43	2,5612E-02
972,72	-2,9046E-01
973,01	6,7117E-01
973,31	7,5548E-01
973,60	4,0340E-01
973,89	-4,5083E-01
974,18	1,8891E-01
974,48	5,0269E-01
974,77	-3,0575E-01
975,06	5,2008E-01
975,35	1,3947E-01
975,64	-8,5459E-01
975,94	1,0380E00
976,23	1,0455E00
976,52	-1,1856E-01
976,81	4,7052E-01
977,10	7,1773E-01
977,40	5,8973E-02
977,69	-2,0499E-01
977,98	-1,3351E00
978,27	-3,1254E-02
978,56	4,8819E-01
978,86	-4,6111E-01
979,15	1,2426E-01
979,44	-3,1240E-02
979,73	-3,7869E-01
980,02	-6,9506E-01
980,31	9,9126E-02
980,60	-4,2032E-01
980,89	-6,1187E-01
981,19	-8,7919E-01
981,48	1,0611E00
981,77	6,1173E-01
982,06	2,6450E-01
982,35	-1,0132E00
982,64	2,0925E-01
982,93	1,3668E00
983,22	-3,5487E-02
983,51	1,4600E00
983,80	3,2976E-01
984,09	-8,6099E-01
984,38	3,4348E-01
984,67	-1,2612E00
984,96	5,2986E-01
985,25	4,8339E-01
985,55	-3,7272E-01
985,84	2,5611E-01
986,13	7,2163E-01
986,42	6,6316E-01
986,71	-9,1686E-01
987,00	5,8336E-01
987,29	3,8678E-01
987,58	4,5028E-01
987,86	-1,6108E00
988,15	-4,4767E-01
988,44	-9,2655E-01
988,73	-1,0626E00
989,02	1,4975E00
989,31	4,7926E-01
989,60	7,5151E-01
989,89	1,1419E00
990,18	1,8137E00
990,47	1,3900E00
990,76	-5,6772E-01
991,05	1,1292E00
991,34	1,0150E00
991,63	7,8086E-01
991,92	-1,2123E00
992,20	1,2417E00
992,49	1,1747E00
992,78	1,4356E00
993,07	2,4447E-01
993,36	4,9485E-02
993,65	-2,2249E00
993,94	-1,4456E00
994,22	-5,5856E-01
994,51	1,2165E00
994,80	-1,2120E00
995,09	-2,5736E-01
995,38	-1,2896E00
995,67	-4,2232E-01
995,95	3,1361E-01
996,24	1,6871E00
996,53	-1,2244E00
996,82	2,6307E-01
997,11	2,0214E00
997,39	8,9796E-01
997,68	9,5218E-01
997,97	1,6585E-01
998,26	1,1532E00
998,54	-1,0885E00
998,83	-6,0562E-01
999,12	3,5375E-01
999,41	2,9522E-01
999,69	5,2695E-01
999,98	-7,4217E-01
1000,27	1,8357E-01
1000,56	7,6319E-01
1000,84	-1,1279E00
1001,13	-1,7546E00
1001,42	-2,7315E00
1001,70	-2,7912E00
1001,99	-9,4227E-01
1002,28	-1,6870E00
1002,56	-1,0875E00
1002,85	-1,3651E00
1003,14	1,3919E-01
1003,42	-2,7447E-01
1003,71	1,3789E00
1004,00	3,9581E00
1004,28	1,0263E00
1004,57	7,5790E-02
1004,86	1,4344E-01
1005,14	6,6532E-01
1005,43	-7,3554E-01
1005,72	-2,5106E00
1006,00	-1,8429E00
1006,29	-2,4355E00
1006,57	-6,9189E-01
1006,86	1,7745E00
1007,15	6,1214E-01
1007,43	2,1591E00
1007,72	4,9930E-01
1008,00	2,5686E-01
1008,29	1,5090E00
1008,57	-5,8419E-01
1008,86	-1,3547E00
1009,14	-1,4553E00
1009,43	-3,7555E00
1009,71	1,0594E00
1010,00	-2,7330E00
1010,29	6,6058E-01
1010,57	9,2078E-02
1010,86	-1,5262E00
1011,14	-1,9656E00
1011,43	6,9332E-01
1011,71	8,0955E-01
1011,99	-4,8995E-01
1012,28	2,0089E00
1012,56	3,5211E00
1012,85	2,0848E00
1013,13	3,3208E00
1013,42	1,4233E00
1013,70	3,6855E00
1013,99	6,1248E-01
1014,27	3,4329E00
1014,56	-2,3515E00
1014,84	3,6593E00
1015,12	9,2499E-01
1015,41	1,6003E00
1015,69	-2,7297E00
1015,98	-8,1762E-01
1016,26	-2,3014E-01
1016,54	-1,1672E-01
1016,83	-5,1396E00
1017,11	4,8580E-01
1017,39	1,2471E00
1017,68	-1,4694E00
1017,96	2,6699E00
1018,25	-2,7312E00
1018,53	-1,0555E00
1018,81	-1,5598E00
1019,10	-1,3030E00
1019,38	-1,6565E00
1019,66	2,6823E00
1019,94	1,9498E00
1020,23	2,5590E00
1020,51	2,9523E00
1020,79	6,4350E-01
1021,08	4,3020E-01
1021,36	4,9691E00
1021,64	4,3830E00
1021,93	1,5260E-01
1022,21	-1,7023E00
1022,49	-1,7023E00
>>>>>End Processed Spectral Data<<<<<
