SpectraSuite Data File
++++++++++++++++++++++++++++++++++++
Date: Thu Feb 01 18:55:35 EET 2018
User: mkilpela
Dark Spectrum Present: Yes
Reference Spectrum Present: No
Number of Sampled Component Spectra: 1
Spectrometers: JAZA2845
Integration Time (usec): 3353 (JAZA2845)
Spectra Averaged: 1 (JAZA2845)
Boxcar Smoothing: 0 (JAZA2845)
Correct for Electrical Dark: No (JAZA2845)
Strobe/Lamp Enabled: No (JAZA2845)
Correct for Detector Non-linearity: No (JAZA2845)
Correct for Stray Light: No (JAZA2845)
Number of Pixels in Processed Spectrum: 2048
>>>>>Begin Processed Spectral Data<<<<<
340,21	-0,0000E00
340,58	-0,0000E00
340,96	-0,0000E00
341,33	0,0000E00
341,70	0,0000E00
342,07	0,0000E00
342,45	0,0000E00
342,82	-0,0000E00
343,19	-0,0000E00
343,57	-0,0000E00
343,94	0,0000E00
344,31	-0,0000E00
344,68	-0,0000E00
345,06	0,0000E00
345,43	0,0000E00
345,80	0,0000E00
346,18	-0,0000E00
346,55	0,0000E00
346,92	-0,0000E00
347,29	0,0000E00
347,67	0,0000E00
348,04	-0,0000E00
348,41	0,0000E00
348,78	-0,0000E00
349,16	-0,0000E00
349,53	0,0000E00
349,90	-0,0000E00
350,27	1,6126E-01
350,64	-4,9389E-02
351,02	1,0552E-01
351,39	5,6955E-03
351,76	8,9085E-02
352,13	1,5419E-01
352,51	4,5912E-01
352,88	-8,7367E-02
353,25	3,9398E-02
353,62	3,4472E-01
353,99	2,1839E-01
354,37	3,8891E-01
354,74	-3,1255E-01
355,11	-1,6897E-01
355,48	1,8027E-02
355,85	-1,6486E00
356,23	-2,1827E-01
356,60	2,9689E-02
356,97	1,7676E-01
357,34	3,5563E-01
357,71	-1,3881E-02
358,08	-6,3891E-01
358,46	7,2985E-02
358,83	1,5781E-01
359,20	2,9795E-01
359,57	2,7042E-01
359,94	1,7831E-01
360,31	6,4834E-02
360,69	2,5825E-01
361,06	4,5170E-01
361,43	-2,5731E-01
361,80	2,2074E-01
362,17	1,9026E-01
362,54	4,0906E-01
362,91	2,4216E-01
363,29	1,3298E-01
363,66	0,0000E00
364,03	2,4297E-01
364,40	5,3851E-01
364,77	-2,2037E-01
365,14	-6,7026E-02
365,51	1,2270E-02
365,88	3,9252E-01
366,26	3,8230E-01
366,63	2,9644E-01
367,00	6,6540E-01
367,37	2,0936E-01
367,74	2,9480E-01
368,11	4,7549E-01
368,48	1,8195E-01
368,85	4,8035E-02
369,22	3,8227E-01
369,59	-1,0635E-01
369,97	-2,1304E-01
370,34	-1,3942E-01
370,71	-4,8611E-02
371,08	1,2935E-01
371,45	-3,0402E-01
371,82	1,4574E-01
372,19	4,0424E-01
372,56	6,8038E-02
372,93	2,3950E-01
373,30	2,7907E-01
373,67	2,6167E-01
374,04	2,2627E-02
374,41	9,2346E-02
374,78	-1,4454E-01
375,15	9,4227E-03
375,52	-3,5656E-01
375,89	2,8558E-01
376,26	3,7398E-01
376,63	1,4022E-01
377,00	-1,3243E-01
377,38	2,9559E-01
377,75	-1,1498E-01
378,12	5,2687E-01
378,49	2,8934E-01
378,86	3,8140E-01
379,23	2,4194E-01
379,60	1,1732E-01
379,97	-1,3340E-01
380,34	3,6551E-01
380,71	-8,5761E-02
381,08	1,0754E-01
381,45	7,5731E-02
381,82	1,8777E-01
382,19	-1,5187E-01
382,55	4,5728E-01
382,92	2,5779E-01
383,29	0,0000E00
383,66	1,2356E-01
384,03	1,6527E-01
384,40	6,9580E-02
384,77	5,4836E-01
385,14	2,9103E-01
385,51	-2,1387E-01
385,88	1,3770E-01
386,25	1,6935E-01
386,62	1,1845E-01
386,99	5,3424E-02
387,36	2,5509E-02
387,73	2,7325E-01
388,10	7,7468E-03
388,47	1,6066E-01
388,84	-9,4439E-02
389,21	2,4348E-01
389,58	6,6058E-03
389,94	1,1152E-01
390,31	3,0096E-02
390,68	2,5749E-01
391,05	1,3954E-01
391,42	4,0607E-01
391,79	2,6628E-01
392,16	2,9619E-01
392,53	2,3739E-01
392,90	1,5354E-01
393,27	2,2812E-01
393,63	1,6748E-01
394,00	2,2838E-01
394,37	2,8520E-01
394,74	-1,0147E-01
395,11	-8,9823E-02
395,48	4,0972E-01
395,85	2,8488E-01
396,22	3,8955E-02
396,58	6,4162E-03
396,95	1,5592E-01
397,32	2,6779E-01
397,69	6,9701E-02
398,06	1,5445E-02
398,43	1,8482E-01
398,80	2,2217E-01
399,16	2,0422E-01
399,53	2,3623E-01
399,90	2,7424E-01
400,27	3,0715E-01
400,64	2,7659E-01
401,01	2,1918E-01
401,37	7,3707E-02
401,74	1,7247E-01
402,11	5,5113E-01
402,48	4,4094E-01
402,85	2,5751E-01
403,22	3,4129E-01
403,58	3,5664E-01
403,95	8,8567E-02
404,32	2,5706E-01
404,69	3,8830E-01
405,06	-3,3591E-02
405,42	2,9055E-01
405,79	1,5602E-01
406,16	3,2749E-01
406,53	3,2888E-01
406,89	4,4714E-01
407,26	3,4595E-01
407,63	2,3985E-01
408,00	1,4410E-01
408,37	2,0690E-01
408,73	4,0495E-01
409,10	3,0726E-01
409,47	5,0098E-01
409,84	3,4629E-01
410,20	4,2966E-01
410,57	6,0539E-01
410,94	3,2140E-01
411,31	6,4722E-01
411,67	5,8230E-01
412,04	4,5531E-01
412,41	6,7757E-01
412,77	5,2788E-01
413,14	5,0235E-01
413,51	4,8323E-01
413,88	6,6744E-01
414,24	7,2208E-01
414,61	6,6834E-01
414,98	9,4200E-01
415,34	1,1969E00
415,71	9,9815E-01
416,08	1,1654E00
416,45	1,3886E00
416,81	1,4861E00
417,18	1,8076E00
417,55	1,6917E00
417,91	1,8167E00
418,28	1,8140E00
418,65	2,2486E00
419,01	2,2059E00
419,38	2,6333E00
419,75	2,8276E00
420,11	3,2169E00
420,48	3,2023E00
420,85	3,4835E00
421,21	4,0344E00
421,58	4,0976E00
421,95	4,3359E00
422,31	4,8645E00
422,68	5,1809E00
423,05	5,2331E00
423,41	5,8014E00
423,78	5,8693E00
424,15	6,6730E00
424,51	7,6134E00
424,88	7,2247E00
425,24	8,3109E00
425,61	8,6517E00
425,98	9,3182E00
426,34	9,5705E00
426,71	9,8409E00
427,07	1,0789E01
427,44	1,2266E01
427,81	1,2103E01
428,17	1,3545E01
428,54	1,4272E01
428,90	1,5386E01
429,27	1,5649E01
429,64	1,8283E01
430,00	1,8517E01
430,37	2,0572E01
430,73	2,0786E01
431,10	2,3866E01
431,46	2,4957E01
431,83	2,7505E01
432,20	2,8796E01
432,56	3,3221E01
432,93	3,6312E01
433,29	3,8611E01
433,66	3,9243E01
434,02	4,4374E01
434,39	4,5291E01
434,75	4,8618E01
435,12	5,3348E01
435,49	5,4519E01
435,85	5,8304E01
436,22	6,5654E01
436,58	6,9093E01
436,95	7,0474E01
437,31	7,6359E01
437,68	7,7637E01
438,04	8,5321E01
438,41	8,9838E01
438,77	9,0963E01
439,14	9,2689E01
439,50	9,8341E01
439,87	1,0004E02
440,23	1,0428E02
440,60	1,0557E02
440,96	1,0614E02
441,33	1,1283E02
441,69	1,1218E02
442,06	1,1412E02
442,42	1,1594E02
442,78	1,1732E02
443,15	1,2055E02
443,51	1,1828E02
443,88	1,1534E02
444,24	1,1512E02
444,61	1,1688E02
444,97	1,1590E02
445,34	1,1960E02
445,70	1,2300E02
446,07	1,2173E02
446,43	1,1453E02
446,79	1,1760E02
447,16	1,2128E02
447,52	1,1848E02
447,89	1,1741E02
448,25	1,1656E02
448,62	1,1919E02
448,98	1,2122E02
449,34	1,1867E02
449,71	1,1577E02
450,07	1,1460E02
450,44	1,1476E02
450,80	1,1462E02
451,16	1,1556E02
451,53	1,1847E02
451,89	1,1503E02
452,25	1,1503E02
452,62	1,1701E02
452,98	1,0893E02
453,35	1,1714E02
453,71	1,1123E02
454,07	1,1157E02
454,44	1,1253E02
454,80	1,1010E02
455,16	1,1275E02
455,53	1,0757E02
455,89	1,1085E02
456,25	1,1249E02
456,62	1,0521E02
456,98	1,0461E02
457,34	9,8889E01
457,71	9,7483E01
458,07	9,3866E01
458,43	8,8916E01
458,80	8,5570E01
459,16	8,5123E01
459,52	7,9558E01
459,89	7,7805E01
460,25	7,5165E01
460,61	7,2218E01
460,98	6,8560E01
461,34	6,6693E01
461,70	6,4032E01
462,07	6,2959E01
462,43	6,0153E01
462,79	5,7046E01
463,15	5,6054E01
463,52	5,1429E01
463,88	5,0312E01
464,24	4,9268E01
464,61	4,5709E01
464,97	4,3788E01
465,33	4,3167E01
465,69	4,0205E01
466,06	3,9003E01
466,42	3,6995E01
466,78	3,5343E01
467,14	3,3600E01
467,51	3,2702E01
467,87	3,1402E01
468,23	3,0070E01
468,59	2,8349E01
468,95	2,8095E01
469,32	2,6554E01
469,68	2,5251E01
470,04	2,4357E01
470,40	2,3049E01
470,77	2,2184E01
471,13	2,1627E01
471,49	2,0758E01
471,85	2,0036E01
472,21	1,8958E01
472,58	1,8102E01
472,94	1,7177E01
473,30	1,6909E01
473,66	1,5924E01
474,02	1,5115E01
474,39	1,4423E01
474,75	1,3676E01
475,11	1,3021E01
475,47	1,1958E01
475,83	1,1394E01
476,19	1,1169E01
476,56	1,0550E01
476,92	1,0102E01
477,28	9,4911E00
477,64	8,7801E00
478,00	8,2753E00
478,36	7,8647E00
478,72	7,5480E00
479,09	7,0420E00
479,45	6,7482E00
479,81	6,1174E00
480,17	6,2018E00
480,53	5,8893E00
480,89	5,5438E00
481,25	5,1591E00
481,61	4,8976E00
481,97	4,7990E00
482,34	4,4895E00
482,70	4,3207E00
483,06	4,1868E00
483,42	4,0285E00
483,78	3,7492E00
484,14	3,7324E00
484,50	3,6252E00
484,86	3,5174E00
485,22	3,1132E00
485,58	3,0800E00
485,94	2,8229E00
486,31	2,7493E00
486,67	2,6081E00
487,03	2,3818E00
487,39	2,3836E00
487,75	2,1845E00
488,11	2,1810E00
488,47	2,0910E00
488,83	1,9173E00
489,19	1,7797E00
489,55	1,7007E00
489,91	1,6264E00
490,27	1,5326E00
490,63	1,4761E00
490,99	1,3254E00
491,35	1,3416E00
491,71	1,1695E00
492,07	1,1420E00
492,43	1,0781E00
492,79	9,3883E-01
493,15	9,0094E-01
493,51	8,1999E-01
493,87	7,8286E-01
494,23	8,0967E-01
494,59	6,2425E-01
494,95	7,1347E-01
495,31	5,5326E-01
495,67	5,4637E-01
496,03	5,1125E-01
496,39	4,8792E-01
496,75	4,4923E-01
497,11	4,8727E-01
497,47	3,8147E-01
497,83	2,7663E-01
498,19	2,9313E-01
498,55	2,6662E-01
498,91	2,9171E-01
499,27	2,3508E-01
499,63	2,3739E-01
499,98	2,1254E-01
500,34	1,9528E-01
500,70	1,8746E-01
501,06	1,2895E-01
501,42	1,4128E-01
501,78	1,1418E-01
502,14	1,5663E-01
502,50	1,5035E-01
502,86	9,9151E-02
503,22	1,1897E-01
503,58	7,6888E-02
503,94	6,4197E-02
504,29	5,9289E-02
504,65	1,0776E-01
505,01	9,9636E-02
505,37	4,1099E-02
505,73	5,8543E-02
506,09	5,2522E-02
506,45	8,2181E-02
506,81	4,7189E-02
507,16	5,5327E-02
507,52	3,0332E-02
507,88	2,8968E-03
508,24	6,5555E-02
508,60	1,1372E-01
508,96	1,4614E-03
509,32	-2,8724E-03
509,67	4,8967E-02
510,03	4,7682E-02
510,39	2,3237E-02
510,75	5,3447E-02
511,11	8,8063E-02
511,47	6,9066E-02
511,82	1,1549E-02
512,18	2,8670E-02
512,54	1,8844E-02
512,90	1,5755E-02
513,26	2,1554E-02
513,61	5,7898E-03
513,97	3,2607E-02
514,33	4,1891E-02
514,69	4,4645E-02
515,05	5,6791E-03
515,40	-3,0277E-02
515,76	5,2739E-02
516,12	3,7365E-02
516,48	5,5999E-02
516,83	3,5093E-02
517,19	1,8607E-02
517,55	-1,1486E-02
517,91	1,4543E-03
518,26	7,2116E-03
518,62	9,8509E-02
518,98	9,3944E-02
519,34	8,7470E-03
519,69	2,0357E-02
520,05	4,4752E-02
520,41	3,3469E-02
520,77	2,8637E-03
521,12	-7,2347E-03
521,48	6,6435E-02
521,84	5,3007E-02
522,19	6,5221E-02
522,55	2,0113E-02
522,91	7,1780E-02
523,27	5,4471E-02
523,62	3,7794E-02
523,98	1,5801E-02
524,34	3,5848E-02
524,69	4,3506E-03
525,05	4,7786E-02
525,41	-2,0376E-02
525,76	4,4073E-03
526,12	7,1651E-03
526,48	5,3255E-02
526,83	6,2207E-02
527,19	1,7308E-02
527,55	5,2485E-02
527,90	1,1411E-02
528,26	5,5160E-02
528,62	2,4817E-02
528,97	3,4262E-02
529,33	1,8551E-02
529,69	5,5537E-02
530,04	3,9980E-02
530,40	-1,8716E-02
530,76	1,8424E-02
531,11	2,7181E-02
531,47	-1,8586E-02
531,82	-3,7108E-02
532,18	1,8612E-02
532,54	7,7451E-02
532,89	8,5632E-03
533,25	4,9506E-02
533,60	3,3975E-02
533,96	4,8881E-02
534,32	1,4295E-02
534,67	3,4065E-02
535,03	-1,4225E-03
535,38	4,2653E-03
535,74	6,8386E-02
536,10	3,1027E-02
536,45	4,4848E-02
536,81	3,5431E-02
537,16	5,4709E-02
537,52	8,3984E-03
537,87	4,2208E-03
538,23	8,3892E-03
538,58	1,1037E-02
538,94	2,2325E-02
539,30	3,6537E-02
539,65	3,4481E-02
540,01	3,4732E-02
540,36	3,3093E-02
540,72	-1,2289E-02
541,07	2,2127E-02
541,43	-2,3340E-02
541,78	3,0396E-02
542,14	-9,5946E-03
542,49	3,1461E-02
542,85	-8,1461E-03
543,20	1,6351E-02
543,56	-4,5253E-02
543,91	4,6603E-02
544,27	7,5541E-02
544,62	-4,2950E-02
544,98	-5,4650E-03
545,33	6,7922E-03
545,69	2,5549E-02
546,04	-1,2150E-02
546,40	4,4450E-02
546,75	3,1120E-02
547,10	-1,6196E-02
547,46	-1,0713E-02
547,81	-1,2233E-02
548,17	2,5657E-02
548,52	2,1716E-02
548,88	1,2056E-02
549,23	4,5193E-02
549,59	3,3729E-02
549,94	7,9772E-03
550,29	-4,0114E-03
550,65	1,2081E-02
551,00	2,0087E-02
551,36	4,0162E-03
551,71	5,7173E-02
552,06	3,6106E-02
552,42	3,3570E-02
552,77	5,1872E-02
553,13	5,1939E-02
553,48	4,2434E-02
553,83	2,8236E-02
554,19	3,7000E-02
554,54	2,5483E-02
554,90	2,1456E-02
555,25	1,2070E-02
555,60	2,6616E-02
555,96	6,4707E-02
556,31	-9,3343E-03
556,66	2,1396E-02
557,02	-5,3440E-03
557,37	2,6795E-02
557,72	-2,1659E-02
558,08	0,0000E00
558,43	-2,5843E-02
558,79	2,8384E-02
559,14	-5,8440E-02
559,49	3,7532E-02
559,85	1,2235E-02
560,20	-6,8834E-03
560,55	2,3342E-02
560,90	2,6101E-02
561,26	4,0999E-03
561,61	2,7295E-03
561,96	4,5409E-02
562,32	7,5537E-02
562,67	4,1709E-02
563,02	4,1549E-02
563,38	3,3236E-02
563,73	4,8364E-02
564,08	2,7812E-02
564,43	-1,5503E-02
564,79	6,0402E-02
565,14	1,3914E-02
565,49	-3,8046E-02
565,84	3,6676E-02
566,20	1,6922E-02
566,55	-2,2624E-02
566,90	1,5662E-02
567,25	7,3571E-02
567,61	-5,7174E-03
567,96	-1,0012E-02
568,31	5,3344E-02
568,66	-8,5290E-03
569,02	-4,3396E-03
569,37	5,9640E-02
569,72	-4,3574E-03
570,07	-8,6300E-03
570,42	4,3606E-03
570,78	1,4448E-02
571,13	5,9078E-03
571,48	1,0216E-02
571,83	3,6550E-02
572,18	3,9547E-02
572,54	5,0107E-02
572,89	1,0321E-02
573,24	3,4110E-02
573,59	2,4908E-02
573,94	3,3805E-02
574,30	1,3239E-02
574,65	-1,0381E-02
575,00	-1,0299E-02
575,35	7,6376E-02
575,70	5,3481E-02
576,05	4,8314E-02
576,40	5,2197E-02
576,76	6,6454E-02
577,11	3,8866E-02
577,46	3,1089E-02
577,81	1,1916E-02
578,16	2,0836E-02
578,51	6,4015E-02
578,86	1,4967E-03
579,21	6,3572E-02
579,57	8,1705E-02
579,92	-1,7966E-02
580,27	5,8770E-02
580,62	0,0000E00
580,97	1,5061E-02
581,32	1,6470E-02
581,67	7,8633E-02
582,02	7,4469E-03
582,37	-2,5583E-02
582,72	-1,0426E-02
583,08	3,4578E-02
583,43	-7,5612E-03
583,78	1,0341E-01
584,13	-3,3468E-02
584,48	1,3660E-02
584,83	-2,5600E-02
585,18	-5,1349E-02
585,53	3,4842E-02
585,88	-2,8810E-02
586,23	-1,2288E-02
586,58	-1,2235E-02
586,93	4,5436E-03
587,28	4,2928E-02
587,63	2,7378E-02
587,98	0,0000E00
588,33	3,9384E-02
588,68	3,0827E-02
589,03	-1,8185E-02
589,38	5,9914E-02
589,73	1,5204E-03
590,08	-7,6494E-03
590,43	-1,5321E-03
590,78	-1,9820E-02
591,13	-4,5634E-03
591,48	-6,0982E-03
591,83	4,9632E-02
592,18	3,6736E-02
592,53	-1,6842E-02
592,88	4,8938E-02
593,23	6,3901E-02
593,58	2,9166E-02
593,93	2,3133E-02
594,28	-7,6800E-03
594,63	6,9116E-02
594,98	2,3214E-02
595,33	5,8742E-02
595,68	4,3113E-02
596,02	-9,2994E-03
596,37	-4,8553E-02
596,72	3,7168E-02
597,07	5,4464E-02
597,42	4,3757E-02
597,77	3,1056E-02
598,12	1,4114E-02
598,47	-1,1010E-02
598,82	-2,0260E-02
599,17	-2,5068E-02
599,52	-4,7291E-03
599,86	9,4520E-03
600,21	2,3510E-02
600,56	2,0635E-02
600,91	3,3391E-02
601,26	-1,7464E-02
601,61	8,5397E-02
601,96	2,3848E-02
602,30	3,9778E-02
602,65	4,6073E-02
603,00	5,4093E-02
603,35	1,7545E-02
603,70	3,1990E-02
604,05	8,0064E-03
604,40	1,6158E-03
604,74	0,0000E00
605,09	4,0670E-02
605,44	-1,6421E-02
605,79	4,3839E-02
606,14	1,6346E-02
606,48	-1,6378E-03
606,83	0,0000E00
607,18	1,6440E-03
607,53	1,4844E-02
607,88	-6,6325E-03
608,22	-1,8390E-02
608,57	-9,9846E-03
608,92	-3,6965E-02
609,27	-1,0035E-02
609,62	-1,5126E-02
609,96	2,5315E-02
610,31	7,4355E-02
610,66	2,7030E-02
611,01	1,6884E-02
611,35	1,3570E-02
611,70	4,1333E-02
612,05	-8,5038E-03
612,40	-1,1994E-02
612,74	6,7104E-02
613,09	-3,1074E-02
613,44	4,8158E-02
613,79	6,2314E-02
614,13	3,4912E-02
614,48	-4,6879E-02
614,83	-3,4977E-03
615,17	-2,6318E-02
615,52	-1,7637E-02
615,87	5,1319E-02
616,22	4,7583E-02
616,56	4,6004E-02
616,91	-3,3706E-02
617,26	-2,1362E-02
617,60	-1,9651E-02
617,95	5,7296E-02
618,30	-3,6174E-02
618,64	1,8029E-02
618,99	2,8878E-02
619,34	8,1524E-02
619,68	5,4335E-03
620,03	2,7146E-02
620,38	-2,0043E-02
620,72	1,0955E-02
621,07	-1,8359E-03
621,42	8,5941E-02
621,76	5,6816E-02
622,11	-1,8393E-02
622,45	4,0576E-02
622,80	2,2105E-02
623,15	2,0621E-02
623,49	1,8609E-02
623,84	-7,4657E-03
624,18	-1,8636E-02
624,53	7,1067E-02
624,88	1,8685E-02
625,22	5,4761E-02
625,57	1,3041E-02
625,91	-4,9243E-02
626,26	-1,5147E-02
626,61	1,8933E-02
626,95	2,2777E-02
627,30	1,7248E-02
627,64	1,8942E-02
627,99	2,6732E-02
628,33	6,0887E-02
628,68	-4,5669E-02
629,03	-1,3478E-02
629,37	7,1174E-02
629,72	-2,5033E-02
630,06	3,8697E-03
630,41	5,8369E-03
630,75	5,0927E-02
631,10	-1,5584E-02
631,44	-2,9105E-02
631,79	-5,8736E-03
632,13	-3,7449E-02
632,48	-2,5519E-02
632,82	1,9586E-02
633,17	-2,5895E-02
633,51	3,7673E-02
633,86	2,3790E-02
634,20	-1,4006E-02
634,55	4,1955E-02
634,89	5,1995E-02
635,24	8,0063E-03
635,58	9,9994E-03
635,93	5,8402E-02
636,27	-3,4018E-02
636,62	1,0029E-02
636,96	8,6184E-02
637,30	1,8226E-02
637,65	-4,6336E-02
637,99	-6,0771E-03
638,34	5,2388E-02
638,68	0,0000E00
639,03	2,2318E-02
639,37	-3,6608E-02
639,71	2,2359E-02
640,06	3,6862E-02
640,40	-1,4316E-02
640,75	-1,2299E-02
641,09	8,4126E-02
641,44	-4,5070E-02
641,78	3,9359E-02
642,12	-1,6514E-02
642,47	2,0595E-02
642,81	6,6214E-02
643,15	2,3003E-02
643,50	-1,6681E-02
643,84	-4,1444E-03
644,19	-2,0808E-03
644,53	5,0137E-02
644,87	1,0177E-01
645,22	3,5703E-02
645,56	4,2153E-02
645,90	1,4782E-02
646,25	3,6034E-02
646,59	7,4901E-02
646,93	3,2005E-02
647,28	3,1912E-02
647,62	5,0940E-02
647,96	-3,2205E-02
648,31	-1,7031E-02
648,65	-6,1950E-02
648,99	3,2054E-02
649,34	2,5808E-02
649,68	6,4292E-03
650,02	2,5692E-02
650,36	2,1585E-02
650,71	6,0873E-02
651,05	-2,1673E-03
651,39	8,0841E-02
651,74	8,5210E-02
652,08	1,3148E-02
652,42	1,9642E-02
652,76	1,1011E-02
653,11	-3,5109E-02
653,45	0,0000E00
653,79	-6,2229E-02
654,13	-2,6613E-02
654,48	-8,9267E-03
654,82	7,6080E-02
655,16	6,7115E-03
655,50	-1,3608E-02
655,85	2,4867E-02
656,19	-2,4563E-02
656,53	-1,5686E-02
656,87	1,1260E-01
657,21	9,9249E-02
657,56	2,2723E-03
657,90	-1,5846E-02
658,24	4,3312E-02
658,58	9,2864E-02
658,92	1,5878E-02
659,27	-2,2929E-02
659,61	2,3017E-03
659,95	4,3555E-02
660,29	5,0757E-02
660,63	9,9447E-02
660,97	4,8456E-02
661,32	4,1901E-02
661,66	3,4933E-02
662,00	3,0504E-02
662,34	7,0130E-03
662,68	2,6049E-02
663,02	1,4125E-02
663,37	-1,8755E-02
663,71	-2,3784E-03
664,05	7,0886E-03
664,39	5,4700E-02
664,73	7,1430E-02
665,07	1,4486E-02
665,41	4,7905E-03
665,75	4,8545E-02
666,09	-4,0906E-02
666,44	3,3972E-02
666,78	2,4189E-02
667,12	1,9481E-02
667,46	1,9656E-02
667,80	2,4500E-02
668,14	2,7057E-02
668,48	1,2378E-02
668,82	1,2395E-02
669,16	-7,4461E-03
669,50	-1,4892E-02
669,84	3,4921E-02
670,18	9,7034E-02
670,52	1,2645E-02
670,86	2,7899E-02
671,20	-7,5847E-03
671,54	0,0000E00
671,88	-1,2727E-02
672,22	-9,6039E-02
672,57	5,1554E-03
672,91	-9,4860E-02
673,25	-1,2855E-02
673,59	-1,2471E-01
673,93	0,0000E00
674,27	4,7207E-02
674,61	2,1019E-02
674,95	-5,2086E-03
675,28	9,7675E-02
675,62	1,5864E-02
675,96	3,9484E-02
676,30	5,8405E-02
676,64	4,2871E-02
676,98	7,9597E-02
677,32	4,5654E-02
677,66	2,1521E-02
678,00	1,1395E-01
678,34	-3,5182E-02
678,68	-6,7289E-02
679,02	2,1568E-02
679,36	-4,6346E-02
679,70	4,3539E-02
680,04	9,8333E-02
680,38	-3,8690E-02
680,72	-3,3034E-02
681,06	1,6550E-02
681,39	-8,2670E-03
681,73	-2,2196E-02
682,07	-2,7871E-02
682,41	1,1210E-02
682,75	-9,2471E-02
683,09	-4,5112E-02
683,43	1,2835E-01
683,77	-5,9813E-02
684,11	9,6152E-02
684,44	4,2855E-02
684,78	-2,8512E-02
685,12	-2,8750E-02
685,46	2,9111E-02
685,80	-1,1539E-01
686,14	-4,0563E-02
686,48	2,0360E-02
686,81	-9,8422E-02
687,15	3,7889E-02
687,49	4,4049E-02
687,83	-8,1943E-02
688,17	-3,2824E-02
688,51	-1,4767E-02
688,84	-4,1995E-02
689,18	2,6854E-02
689,52	1,7929E-02
689,86	5,9935E-03
690,20	6,6238E-02
690,53	3,0247E-02
690,87	1,4955E-02
691,21	2,1312E-02
691,55	5,5135E-02
691,88	-1,2239E-02
692,22	8,3587E-02
692,56	-6,0446E-02
692,90	6,4807E-02
693,23	3,0803E-02
693,57	-2,1562E-02
693,91	-2,7672E-02
694,25	1,0562E-01
694,58	1,8731E-02
694,92	1,2162E-01
695,26	9,7198E-02
695,60	6,9077E-02
695,93	6,3227E-03
696,27	0,0000E00
696,61	-1,0868E-01
696,94	5,3672E-02
697,28	-1,2696E-02
697,62	1,5349E-01
697,96	7,0076E-02
698,29	9,2257E-02
698,63	1,2857E-02
698,97	-9,6334E-03
699,30	-4,8520E-02
699,64	-1,9393E-02
699,98	1,3004E-02
700,31	-9,6419E-03
700,65	-6,4446E-02
700,99	2,9226E-02
701,32	-1,3009E-02
701,66	8,4585E-02
702,00	1,1146E-01
702,33	4,5872E-02
702,67	1,6404E-01
703,00	2,9769E-02
703,34	7,5646E-02
703,68	6,5818E-03
704,01	0,0000E00
704,35	-1,0156E-02
704,69	1,9859E-02
705,02	-6,6427E-03
705,36	1,3294E-02
705,69	1,9949E-02
706,03	1,5092E-01
706,36	-4,4265E-02
706,70	-2,3556E-02
707,04	-8,0675E-02
707,37	1,3160E-01
707,71	4,3957E-02
708,04	1,0883E-01
708,38	-3,0607E-02
708,71	-3,3991E-03
709,05	9,2518E-02
709,39	7,8373E-02
709,72	-2,0451E-02
710,06	1,3648E-02
710,39	3,1090E-02
710,73	6,2036E-02
711,06	-2,7442E-02
711,40	6,1734E-02
711,73	5,2031E-02
712,07	-2,4210E-02
712,40	-9,8073E-02
712,74	-3,5143E-03
713,07	1,0113E-01
713,41	1,0555E-02
713,74	-3,5252E-02
714,08	7,8055E-02
714,41	2,1126E-02
714,75	-7,1001E-03
715,08	4,2267E-02
715,42	-3,5390E-03
715,75	-1,0658E-02
716,08	-5,7106E-02
716,42	2,8569E-02
716,75	-1,4494E-02
717,09	-3,6103E-02
717,42	9,3767E-02
717,76	1,0779E-02
718,09	-2,1731E-02
718,43	3,6181E-03
718,76	-1,4761E-01
719,09	-7,3096E-03
719,43	-3,6688E-02
719,76	1,4693E-02
720,10	-3,6656E-02
720,43	5,4773E-02
720,76	7,2893E-02
721,10	2,2157E-02
721,43	1,1008E-01
721,76	1,1060E-02
722,10	6,6220E-02
722,43	-2,0128E-01
722,77	2,5828E-02
723,10	3,7111E-03
723,43	0,0000E00
723,77	1,0551E-01
724,10	7,4583E-03
724,43	4,5427E-02
724,77	-1,0940E-01
725,10	-9,8511E-02
725,43	-7,5815E-03
725,77	-4,5644E-02
726,10	-1,5949E-01
726,43	1,5218E-02
726,77	-3,8231E-03
727,10	-1,0045E-01
727,43	-5,7796E-02
727,77	-7,6820E-02
728,10	1,0015E-01
728,43	7,3525E-02
728,76	-1,1656E-02
729,10	-4,3097E-02
729,43	3,4986E-02
729,76	7,4280E-02
730,09	4,3409E-02
730,43	2,5072E-01
730,76	7,0799E-02
731,09	3,1496E-02
731,42	7,5290E-02
731,76	1,5968E-02
732,09	1,0881E-01
732,42	1,2038E-02
732,75	0,0000E00
733,09	1,7667E-01
733,42	1,2100E-01
733,75	1,5718E-01
734,08	1,3477E-01
734,41	1,1007E-01
734,75	5,3014E-02
735,08	1,2421E-01
735,41	-6,2014E-02
735,74	6,9981E-02
736,07	3,3317E-02
736,41	-5,0076E-02
736,74	1,2571E-02
737,07	-3,7425E-02
737,40	8,8871E-02
737,73	-1,3483E-01
738,06	6,6845E-02
738,40	3,3792E-02
738,73	-8,4246E-02
739,06	5,5915E-02
739,39	-3,4436E-02
739,72	3,0293E-02
740,05	8,1899E-02
740,38	-2,1623E-02
740,72	-1,4735E-01
741,05	2,0439E-01
741,38	6,5829E-02
741,71	-9,6647E-02
742,04	8,8184E-03
742,37	1,3253E-01
742,70	-3,0819E-02
743,03	4,0115E-02
743,36	-4,9318E-02
743,69	1,7961E-02
744,02	6,3389E-02
744,36	-9,8995E-02
744,69	1,3586E-01
745,02	-7,2866E-02
745,35	-1,8220E-02
745,68	0,0000E00
746,01	9,1475E-03
746,34	-2,3039E-02
746,67	-4,6580E-03
747,00	-7,4977E-02
747,33	-2,3401E-02
747,66	7,5194E-02
747,99	7,5017E-02
748,32	-5,2077E-02
748,65	9,5149E-02
748,98	-8,8994E-02
749,31	4,7790E-02
749,64	-4,7898E-03
749,97	-4,7720E-03
750,30	4,8213E-03
750,63	1,9296E-02
750,96	-1,9395E-02
751,29	1,2142E-01
751,62	-1,5466E-01
751,95	1,1352E-01
752,28	5,4331E-02
752,61	1,1400E-01
752,94	1,2386E-01
753,27	-4,9379E-02
753,60	-5,5021E-02
753,92	5,9892E-02
754,25	1,5126E-02
754,58	9,7866E-02
754,91	-4,5479E-02
755,24	1,7890E-01
755,57	-5,1511E-02
755,90	-9,2222E-02
756,23	-4,6492E-02
756,56	3,1501E-02
756,89	1,0381E-02
757,22	-2,0696E-02
757,54	-2,1087E-02
757,87	1,6413E-01
758,20	3,6804E-02
758,53	-1,5343E-01
758,86	8,5059E-02
759,19	-7,9837E-02
759,52	1,6504E-01
759,84	-1,6122E-02
760,17	-7,0382E-02
760,50	-1,9168E-01
760,83	-1,5194E-01
761,16	7,2967E-02
761,49	4,9597E-02
761,81	6,6046E-02
762,14	-8,9220E-02
762,47	1,3405E-01
762,80	1,0631E-01
763,13	5,6251E-03
763,45	5,6938E-03
763,78	1,4652E-01
764,11	1,6941E-02
764,44	-1,3045E-01
764,77	-1,4791E-01
765,09	5,7508E-03
765,42	1,5530E-01
765,75	5,7588E-03
766,08	-1,5490E-01
766,40	-8,1757E-02
766,73	7,6027E-02
767,06	2,1069E-01
767,39	1,0068E-01
767,71	1,0013E-01
768,04	2,0601E-01
768,37	1,0678E-01
768,70	6,5806E-02
769,02	1,4481E-01
769,35	-2,4718E-01
769,68	6,0548E-02
770,00	1,8106E-01
770,33	-3,6134E-02
770,66	5,4764E-02
770,99	-9,8996E-02
771,31	-4,9246E-02
771,64	0,0000E00
771,97	1,8022E-01
772,29	-4,3324E-02
772,62	-2,8726E-01
772,95	2,7414E-01
773,27	-7,5621E-02
773,60	-2,5128E-02
773,93	1,8828E-02
774,25	2,5324E-02
774,58	1,3960E-01
774,90	1,0697E-01
775,23	-5,7890E-02
775,56	3,8453E-02
775,88	2,3205E-01
776,21	1,4470E-01
776,54	1,3807E-01
776,86	-2,0213E-01
777,19	-5,2593E-02
777,51	1,8473E-01
777,84	9,2486E-02
778,16	4,6403E-02
778,49	4,6761E-02
778,82	-1,7426E-01
779,14	-1,9821E-02
779,47	-2,0949E-01
779,79	-2,4180E-01
780,12	-1,0857E-01
780,44	-8,8837E-02
780,77	-6,1814E-02
781,10	-2,7488E-02
781,42	-7,5596E-02
781,75	2,7937E-02
782,07	1,6111E-01
782,40	-9,1356E-02
782,72	1,2618E-01
783,05	7,1511E-03
783,37	2,3588E-01
783,70	-3,1658E-01
784,02	9,2427E-02
784,35	2,5582E-01
784,67	2,5154E-01
785,00	9,3462E-02
785,32	1,5449E-01
785,65	7,2787E-03
785,97	2,3839E-01
786,30	1,6214E-01
786,62	-1,4612E-02
786,94	2,9617E-02
787,27	-7,3434E-02
787,59	-6,6753E-02
787,92	-6,6995E-02
788,24	4,4588E-02
788,57	-3,7376E-02
788,89	1,5694E-01
789,22	2,2240E-02
789,54	-1,4792E-01
789,86	-7,5196E-03
790,19	2,5848E-01
790,51	3,7066E-02
790,84	-4,5297E-02
791,16	-1,7189E-01
791,48	-5,2083E-02
791,81	-1,1306E-01
792,13	1,5034E-01
792,45	-1,6437E-01
792,78	7,5974E-02
793,10	-1,4912E-02
793,43	-4,5092E-02
793,75	0,0000E00
794,07	-9,7222E-02
794,40	4,4724E-02
794,72	-1,9572E-01
795,04	-7,5066E-03
795,37	6,7204E-02
795,69	2,0231E-01
796,01	-3,7462E-02
796,34	6,7395E-02
796,66	1,1907E-01
796,98	-2,2088E-02
797,30	3,7694E-02
797,63	1,3356E-01
797,95	-1,1764E-01
798,27	-1,1790E-01
798,60	2,2901E-01
798,92	2,9066E-01
799,24	-1,9893E-01
799,56	2,5965E-01
799,89	-2,2276E-01
800,21	1,3250E-01
800,53	7,3486E-02
800,85	1,4649E-01
801,18	2,8200E-01
801,50	5,1872E-02
801,82	1,4721E-01
802,14	1,5618E-01
802,47	1,8622E-01
802,79	1,1261E-01
803,11	-1,4103E-01
803,43	-1,9186E-01
803,75	-1,0359E-01
804,08	-3,0413E-01
804,40	-5,2165E-02
804,72	7,3495E-02
805,04	2,9142E-01
805,36	-1,5215E-01
805,69	1,5010E-02
806,01	-3,0083E-02
806,33	-4,2187E-01
806,65	-2,2836E-01
806,97	-3,0118E-02
807,29	-1,5936E-01
807,62	-1,9049E-01
807,94	4,4367E-01
808,26	-2,3066E-01
808,58	7,6810E-03
808,90	-1,1431E-01
809,22	1,0826E-01
809,54	2,8758E-01
809,86	-1,1628E-01
810,18	1,5390E-01
810,51	3,1326E-02
810,83	4,6505E-02
811,15	-7,7641E-03
811,47	-6,1957E-02
811,79	2,7223E-01
812,11	1,8054E-01
812,43	7,8987E-03
812,75	6,3430E-02
813,07	7,8579E-02
813,39	1,7401E-01
813,71	4,7303E-02
814,03	3,2109E-02
814,35	-2,4254E-02
814,67	1,8395E-01
814,99	5,5964E-02
815,31	-2,1585E-01
815,64	8,0340E-03
815,96	-1,4703E-01
816,28	5,6841E-02
816,60	8,1751E-02
816,92	-4,0881E-02
817,24	-1,4687E-01
817,56	-2,3800E-01
817,88	8,1841E-02
818,19	-3,4883E-01
818,51	9,1202E-02
818,83	1,6599E-01
819,15	8,4275E-02
819,47	-8,3921E-02
819,79	-1,0039E-01
820,11	-2,1975E-01
820,43	-4,1614E-02
820,75	1,0169E-01
821,07	3,7078E-01
821,39	1,3637E-01
821,71	-1,7066E-02
822,03	-2,2326E-01
822,35	1,1162E-01
822,67	8,5835E-02
822,99	-1,2894E-01
823,31	2,5992E-01
823,62	1,1338E-01
823,94	-4,3781E-02
824,26	-9,7008E-02
824,58	2,2876E-01
824,90	-2,1515E-01
825,22	2,2971E-01
825,54	-1,6838E-01
825,86	-8,9603E-02
826,17	2,1487E-01
826,49	-9,0106E-03
826,81	-7,2187E-02
827,13	5,4535E-02
827,45	9,0337E-03
827,77	9,1088E-03
828,08	-1,2820E-01
828,40	-2,1053E-01
828,72	-1,6712E-01
829,04	3,3367E-01
829,36	-4,6697E-02
829,67	6,4603E-02
829,99	1,4927E-01
830,31	-5,6754E-02
830,63	-4,5683E-01
830,95	1,1321E-01
831,26	-4,7467E-02
831,58	5,7020E-02
831,90	-6,7344E-02
832,22	-1,7399E-01
832,53	1,2652E-01
832,85	-1,6461E-01
833,17	3,7343E-01
833,49	-1,9872E-02
833,80	2,5525E-01
834,12	3,9423E-02
834,44	2,9953E-02
834,76	7,9932E-02
835,07	3,4011E-01
835,39	0,0000E00
835,71	-4,9989E-02
836,02	3,0510E-02
836,34	-9,1403E-02
836,66	-8,0390E-02
836,97	1,1177E-01
837,29	-1,7296E-01
837,61	2,7506E-01
837,93	-2,5309E-01
838,24	-2,9828E-01
838,56	-1,6585E-01
838,88	8,2338E-02
839,19	-8,3125E-02
839,51	-1,5720E-01
839,82	-5,2596E-02
840,14	3,2521E-01
840,46	1,0690E-01
840,77	1,0583E-02
841,09	0,0000E00
841,41	-7,3938E-02
841,72	1,1886E-01
842,04	-5,4482E-01
842,35	3,5495E-01
842,67	5,3016E-01
842,99	-3,2475E-02
843,30	-4,6305E-01
843,62	2,5323E-01
843,93	-1,2309E-01
844,25	-1,1110E-02
844,56	7,7909E-02
844,88	-2,1303E-01
845,20	-3,6642E-01
845,51	-1,2363E-01
845,83	-1,1360E-02
846,14	2,3548E-01
846,46	-1,3351E-01
846,77	-3,3709E-02
847,09	1,7222E-01
847,40	0,0000E00
847,72	-1,3817E-01
848,03	-2,7514E-01
848,35	2,7961E-01
848,66	-3,5202E-02
848,98	1,7493E-01
849,29	1,1638E-02
849,61	1,7917E-01
849,92	-4,3845E-01
850,24	-2,5063E-01
850,55	-6,0435E-02
850,87	-1,7844E-01
851,18	3,8859E-01
851,50	-1,4344E-01
851,81	3,6504E-02
852,12	2,4554E-02
852,44	-2,2035E-01
852,75	7,3925E-02
853,07	2,5715E-01
853,38	-3,8483E-01
853,70	1,2408E-02
854,01	-1,2468E-02
854,32	8,8025E-02
854,64	6,4999E-01
854,95	3,7619E-01
855,27	-2,7771E-01
855,58	3,7709E-02
855,89	-1,2954E-01
856,21	-2,4179E-01
856,52	3,6476E-01
856,83	-3,0094E-01
857,15	1,0358E-01
857,46	-3,9699E-01
857,77	-1,5671E-01
858,09	5,2659E-02
858,40	-5,2003E-02
858,71	-1,3423E-01
859,03	-2,1480E-01
859,34	2,5786E-01
859,65	3,0728E-01
859,97	-1,2193E-01
860,28	2,6163E-01
860,59	8,2064E-02
860,91	1,9274E-01
861,22	1,8018E-01
861,53	-6,9137E-02
861,84	2,9053E-01
862,16	-3,3261E-01
862,47	-2,9064E-01
862,78	0,0000E00
863,10	1,3993E-02
863,41	1,4304E-01
863,72	-2,5974E-01
864,03	-4,2140E-01
864,35	-2,1659E-01
864,66	2,5966E-01
864,97	2,6331E-01
865,28	2,2065E-01
865,59	2,6553E-01
865,91	3,2384E-01
866,22	4,4127E-01
866,53	-1,0305E-01
866,84	4,6608E-01
867,15	-5,9957E-02
867,47	1,9540E-01
867,78	7,6365E-02
868,09	1,5267E-02
868,40	-1,5202E-02
868,71	2,2632E-01
869,02	-2,1647E-01
869,34	-2,9603E-01
869,65	6,2304E-02
869,96	-3,9057E-01
870,27	1,8798E-01
870,58	4,2927E-01
870,89	1,5933E-02
871,20	4,8032E-02
871,52	-1,5904E-01
871,83	4,7840E-02
872,14	1,2867E-01
872,45	-1,3004E-01
872,76	-1,6120E-01
873,07	-3,2639E-01
873,38	1,7837E-01
873,69	2,6043E-01
874,00	-2,1467E-01
874,31	0,0000E00
874,62	-2,5101E-01
874,94	-3,3706E-02
875,25	5,8654E-01
875,56	-6,2898E-01
875,87	-4,4810E-01
876,18	1,3551E-01
876,49	2,9419E-01
876,80	-1,8668E-01
877,11	-4,2777E-01
877,42	-2,4264E-01
877,73	2,4283E-01
878,04	-8,7293E-02
878,35	-3,5578E-02
878,66	-1,2292E-01
878,97	-2,8063E-01
879,28	-1,2422E-01
879,59	-4,1067E-01
879,90	-3,5572E-02
880,21	1,0728E-01
880,52	-1,4386E-01
880,83	1,7895E-02
881,14	-3,8221E-01
881,45	3,5902E-02
881,76	-5,8222E-01
882,07	1,8012E-02
882,37	-1,7979E-01
882,68	-1,6190E-01
882,99	-5,3875E-02
883,30	-4,4979E-01
883,61	-9,0115E-02
883,92	1,2661E-01
884,23	2,5084E-01
884,54	1,0800E-01
884,85	-2,1643E-01
885,16	-4,9288E-01
885,47	6,3392E-01
885,77	1,0873E-01
886,08	7,3895E-02
886,39	1,7794E-01
886,70	-7,2174E-02
887,01	7,3431E-02
887,32	-3,6006E-02
887,63	-9,0962E-02
887,93	5,3457E-02
888,24	0,0000E00
888,55	1,6400E-01
888,86	-3,6388E-02
889,17	1,8259E-01
889,47	1,7968E-02
889,78	-2,8971E-01
890,09	-3,2558E-01
890,40	3,0662E-01
890,71	2,3465E-01
891,01	1,2820E-01
891,32	3,6495E-02
891,63	-7,2718E-02
891,94	-4,1799E-01
892,25	-1,4671E-01
892,55	-2,5666E-01
892,86	5,0603E-01
893,17	-3,0731E-01
893,48	0,0000E00
893,78	-3,4410E-01
894,09	1,8165E-01
894,40	1,8218E-01
894,70	-1,4829E-01
895,01	-1,0973E-01
895,32	2,7146E-01
895,63	-1,8226E-01
895,93	-3,6680E-02
896,24	-2,5670E-01
896,55	-1,4462E-01
896,85	0,0000E00
897,16	-4,8766E-01
897,47	-5,1534E-01
897,77	-1,8501E-02
898,08	-3,6387E-01
898,39	4,2373E-01
898,69	6,5686E-01
899,00	-1,4826E-01
899,31	2,3743E-01
899,61	-1,1396E-01
899,92	1,8604E-02
900,23	1,8891E-01
900,53	1,8995E-01
900,84	3,7542E-02
901,14	-2,8190E-01
901,45	-3,2258E-01
901,76	-1,5033E-01
902,06	3,0591E-01
902,37	9,5396E-02
902,67	1,8825E-01
902,98	2,2782E-01
903,29	-3,6867E-01
903,59	-4,4710E-01
903,90	-3,6924E-01
904,20	5,2738E-01
904,51	-4,4862E-01
904,81	2,1625E-01
905,12	-1,3678E-01
905,42	-7,8391E-02
905,73	3,3302E-01
906,03	9,8969E-01
906,34	7,6795E-01
906,64	6,7701E-01
906,95	-5,4561E-01
907,25	-3,7695E-01
907,56	-1,1843E00
907,86	2,0183E-01
908,17	-2,0086E-02
908,47	-2,8408E-01
908,78	-3,2430E-01
909,08	1,8618E-01
909,39	8,3164E-01
909,69	6,9136E-01
910,00	3,4011E-01
910,30	1,0450E-01
910,61	4,9556E-01
910,91	4,4047E-01
911,21	1,5013E-01
911,52	-9,5282E-01
911,82	1,2897E-01
912,13	3,6974E-01
912,43	3,8784E-01
912,74	-4,8516E-01
913,04	1,9852E-01
913,34	-8,6804E-01
913,65	-1,7833E-01
913,95	2,2462E-01
914,25	1,7723E-01
914,56	4,7614E-01
914,86	0,0000E00
915,17	1,1543E-01
915,47	-4,4291E-01
915,77	8,5125E-01
916,08	4,3561E-01
916,38	-2,3351E-01
916,68	4,6570E-01
916,99	-3,0979E-01
917,29	3,3115E-01
917,59	-2,3686E-02
917,90	-2,3912E-01
918,20	-2,4257E-01
918,50	9,9862E-01
918,80	8,9760E-01
919,11	0,0000E00
919,41	2,1885E-01
919,71	-3,2121E-01
920,02	7,8169E-01
920,32	-4,4032E-01
920,62	5,7649E-01
920,92	5,0077E-02
921,23	9,6061E-01
921,53	4,0498E-01
921,83	-4,8293E-01
922,13	5,0374E-02
922,44	-5,9458E-01
922,74	-5,2522E-02
923,04	2,6601E-01
923,34	-5,2137E-01
923,64	-4,1604E-01
923,95	8,1004E-01
924,25	1,6045E-01
924,55	4,8495E-01
924,85	-7,3703E-01
925,15	-5,6288E-01
925,46	1,8629E-01
925,76	-2,7757E-02
926,06	2,2019E-01
926,36	-3,3377E-01
926,66	6,8393E-01
926,96	-8,4251E-01
927,26	-1,4089E-01
927,57	-1,9636E-01
927,87	-4,5191E-01
928,17	6,5739E-01
928,47	2,8993E-02
928,77	-8,9187E-01
929,07	4,4056E-01
929,37	3,1641E-01
929,67	5,5635E-01
929,98	8,9116E-01
930,28	1,2043E-01
930,58	-6,0579E-02
930,88	2,4268E-01
931,18	-1,3882E00
931,48	1,8212E-01
931,78	1,8467E-01
932,08	-2,1660E-01
932,38	-1,5694E-01
932,68	1,3819E00
932,98	-1,1098E00
933,28	1,1465E00
933,58	-8,3896E-01
933,88	-6,4721E-01
934,18	5,2045E-01
934,48	-5,6316E-01
934,78	5,6062E-01
935,08	6,6681E-01
935,38	6,6692E-01
935,68	1,2714E00
935,98	-5,5083E-01
936,28	-6,1195E-01
936,58	5,1992E-01
936,88	-2,3565E-01
937,18	6,9797E-02
937,48	4,8874E-01
937,78	-6,5732E-01
938,08	1,4162E-01
938,38	7,3551E-01
938,68	-4,6914E-01
938,98	5,3482E-01
939,28	-1,8078E-01
939,57	-1,0187E00
939,87	1,1033E-01
940,17	-1,4663E00
940,47	1,2626E00
940,77	8,2545E-01
941,07	5,3802E-01
941,37	-8,3710E-01
941,67	-7,2994E-01
941,97	2,7033E-01
942,26	-1,1256E00
942,56	-3,4800E-01
942,86	-5,8436E-01
943,16	-5,9446E-01
943,46	-8,8120E-01
943,76	-1,2409E00
944,06	-3,6620E-01
944,35	-3,1826E-01
944,65	5,2997E-01
944,95	3,6674E-01
945,25	-1,2815E-01
945,55	-8,2118E-02
945,84	7,1198E-01
946,14	-2,1001E-01
946,44	-1,3251E00
946,74	-8,8870E-01
947,03	-3,4715E-01
947,33	-5,1761E-01
947,63	1,7509E-01
947,93	-7,4709E-01
948,23	1,7966E-01
948,52	8,8398E-02
948,82	5,7529E-01
949,12	-1,3535E-01
949,41	1,1082E00
949,71	6,8194E-01
950,01	1,0202E00
950,31	-7,2469E-01
950,60	-1,4927E00
950,90	-9,3686E-01
951,20	-2,8345E-01
951,49	4,7085E-02
951,79	1,4339E-01
952,09	-1,1504E00
952,38	-2,8796E-01
952,68	6,2811E-01
952,98	-5,4897E-01
953,27	2,1221E00
953,57	-1,4606E-01
953,87	1,4406E00
954,16	1,5018E00
954,46	6,3618E-01
954,76	-4,0587E-01
955,05	-1,1805E00
955,35	4,6753E-01
955,64	-6,3006E-01
955,94	-1,0356E-01
956,24	1,7211E00
956,53	1,7885E00
956,83	-5,9335E-01
957,12	9,9813E-01
957,42	-7,2342E-01
957,72	-6,5358E-01
958,01	1,3242E00
958,31	8,2692E-01
958,60	-6,2951E-01
958,90	-1,0292E00
959,19	-1,2421E00
959,49	-1,7100E-01
959,78	-3,4854E-01
960,08	-1,7945E00
960,37	-1,3803E00
960,67	-1,1699E00
960,96	-1,2671E00
961,26	1,7706E00
961,55	-1,2211E00
961,85	-6,0421E-02
962,14	-9,1675E-01
962,44	-3,0956E-01
962,73	-2,4833E-01
963,03	6,7663E-01
963,32	1,1068E00
963,62	-1,2659E-01
963,91	-1,3939E00
964,21	-6,3513E-01
964,50	9,7101E-01
964,80	-1,1723E00
965,09	1,3109E00
965,38	-9,8811E-01
965,68	3,3505E-01
965,97	1,0029E00
966,27	9,0011E-01
966,56	1,4495E00
966,85	-1,2238E00
967,15	-9,6289E-01
967,44	2,3591E00
967,74	9,8797E-01
968,03	1,3585E00
968,32	1,4315E00
968,62	-2,1571E-01
968,91	9,3242E-01
969,20	3,5539E-01
969,50	-3,5966E-01
969,79	-6,6313E-01
970,08	-5,1715E-01
970,38	-5,3070E-01
970,67	-7,5061E-02
970,96	-8,1887E-01
971,26	-8,5103E-01
971,55	1,0695E00
971,84	-4,6893E-01
972,13	-1,8448E00
972,43	-2,3658E-01
972,72	3,2650E-01
973,01	-1,3586E00
973,31	3,3161E-01
973,60	-5,6403E-01
973,89	0,0000E00
974,18	-2,2742E00
974,48	1,3099E00
974,77	0,0000E00
975,06	9,3129E-01
975,35	-1,7962E00
975,64	-3,4893E-01
975,94	-3,6170E00
976,23	2,4126E00
976,52	0,0000E00
976,81	-2,6700E-01
977,10	-3,3822E00
977,40	-2,5649E00
977,69	-1,8128E00
977,98	-9,2995E-02
978,27	-1,1433E00
978,56	-9,6666E-02
978,86	7,5172E-01
979,15	-1,4541E00
979,44	7,8533E-01
979,73	-3,8925E-01
980,02	1,9761E00
980,31	4,0010E-01
980,60	-2,0553E-01
980,89	4,0975E00
981,19	0,0000E00
981,48	-7,1370E-01
981,77	-1,0180E00
982,06	-3,0769E00
982,35	-7,3043E-01
982,64	5,7269E00
982,93	1,5111E00
983,22	-2,5055E00
983,51	-2,1479E00
983,80	4,4212E-01
984,09	-7,7060E-01
984,38	-1,1035E-01
984,67	9,8287E-01
984,96	-3,6435E00
985,25	-4,1977E00
985,55	-1,2134E-01
985,84	-9,0495E-01
986,13	4,7036E-01
986,42	3,5518E-01
986,71	-1,9025E00
987,00	-3,4210E00
987,29	-2,7833E00
987,58	0,0000E00
987,86	4,8577E00
988,15	-3,3411E00
988,44	2,0681E00
988,73	-5,0508E00
989,02	-4,1969E00
989,31	2,5845E-01
989,60	-1,0400E00
989,89	-4,8994E00
990,18	2,5455E00
990,47	-2,1183E00
990,76	1,0716E00
991,05	-5,5425E-01
991,34	0,0000E00
991,63	2,8275E-01
991,92	8,3047E-01
992,20	3,6269E00
992,49	3,6588E00
992,78	-1,0441E00
993,07	1,1857E00
993,36	2,9546E-01
993,65	-1,3479E00
993,94	1,7615E00
994,22	2,5931E00
994,51	-1,5482E00
994,80	-2,7754E00
995,09	0,0000E00
995,38	-3,1019E-01
995,67	9,4622E-01
995,95	7,9674E-01
996,24	-4,4425E00
996,53	2,4783E00
996,82	1,5096E00
997,11	-1,4481E00
997,39	9,7810E-01
997,68	-4,1070E00
997,97	-5,9698E00
998,26	-2,9592E00
998,54	2,8399E00
998,83	1,7568E00
999,12	2,6654E00
999,41	-1,1448E00
999,69	1,8833E-01
999,98	5,5050E-01
1000,27	1,9187E00
1000,56	-6,1190E00
1000,84	-4,1290E00
1001,13	-2,6881E00
1001,42	4,1273E00
1001,70	-5,6725E-01
1001,99	1,0153E00
1002,28	-1,3920E00
1002,56	-2,8169E00
1002,85	1,4252E00
1003,14	-7,5455E00
1003,42	-8,9687E00
1003,71	3,0783E00
1004,00	-3,0027E00
1004,28	5,0678E00
1004,57	-2,7204E00
1004,86	2,4681E00
1005,14	8,4528E00
1005,43	3,2022E00
1005,72	-1,8566E00
1006,00	4,7841E00
1006,29	-4,8749E00
1006,57	1,2330E00
1006,86	3,6445E00
1007,15	-6,8869E00
1007,43	-2,0316E00
1007,72	-7,5839E-01
1008,00	-1,1360E01
1008,29	2,3648E00
1008,57	-2,1087E00
1008,86	-2,7925E00
1009,14	-4,9325E00
1009,43	3,7458E00
1009,71	-2,1274E00
1010,00	9,6196E00
1010,29	5,1188E00
1010,57	4,2022E00
1010,86	1,5374E01
1011,14	1,4062E00
1011,43	2,4836E00
1011,71	2,6032E00
1011,99	4,1351E00
1012,28	0,0000E00
1012,56	-2,3010E00
1012,85	8,8619E-01
1013,13	7,3527E00
1013,42	4,3510E00
1013,70	-2,3428E00
1013,99	1,2122E01
1014,27	-2,8321E00
1014,56	0,0000E00
1014,84	2,8528E00
1015,12	-5,3829E00
1015,41	-4,4988E00
1015,69	1,3483E01
1015,98	-2,0898E00
1016,26	2,7221E00
1016,54	-2,4405E00
1016,83	-3,8503E00
1017,11	9,0298E00
1017,39	-4,1901E00
1017,68	7,7413E00
1017,96	4,7982E00
1018,25	5,9764E00
1018,53	-1,3528E01
1018,81	-1,0645E01
1019,10	3,0374E00
1019,38	-1,0613E01
1019,66	-7,8633E00
1019,94	1,2832E01
1020,23	1,5869E00
1020,51	4,4265E-01
1020,79	2,1858E00
1021,08	-4,4929E00
1021,36	-1,3270E00
1021,64	-2,5989E00
1021,93	-8,2468E00
1022,21	-7,0874E00
1022,49	-7,0874E00
>>>>>End Processed Spectral Data<<<<<
