SpectraSuite Data File
++++++++++++++++++++++++++++++++++++
Date: Thu Feb 01 18:58:10 EET 2018
User: mkilpela
Dark Spectrum Present: Yes
Reference Spectrum Present: No
Number of Sampled Component Spectra: 1
Spectrometers: JAZA2845
Integration Time (usec): 3353 (JAZA2845)
Spectra Averaged: 1 (JAZA2845)
Boxcar Smoothing: 0 (JAZA2845)
Correct for Electrical Dark: No (JAZA2845)
Strobe/Lamp Enabled: No (JAZA2845)
Correct for Detector Non-linearity: No (JAZA2845)
Correct for Stray Light: No (JAZA2845)
Number of Pixels in Processed Spectrum: 2048
>>>>>Begin Processed Spectral Data<<<<<
340,21	0,0000E00
340,58	0,0000E00
340,96	0,0000E00
341,33	-0,0000E00
341,70	-0,0000E00
342,07	-0,0000E00
342,45	0,0000E00
342,82	-0,0000E00
343,19	-0,0000E00
343,57	-0,0000E00
343,94	-0,0000E00
344,31	-0,0000E00
344,68	-0,0000E00
345,06	0,0000E00
345,43	-0,0000E00
345,80	0,0000E00
346,18	0,0000E00
346,55	0,0000E00
346,92	-0,0000E00
347,29	-0,0000E00
347,67	0,0000E00
348,04	-0,0000E00
348,41	0,0000E00
348,78	-0,0000E00
349,16	-0,0000E00
349,53	0,0000E00
349,90	-0,0000E00
350,27	-1,3194E-01
350,64	-1,1360E-01
351,02	1,6307E-01
351,39	1,0821E-01
351,76	4,4542E-01
352,13	5,1395E-02
352,51	1,9677E-01
352,88	2,9122E-02
353,25	-1,2804E-01
353,62	1,1990E-01
353,99	1,2905E-01
354,37	1,5177E-01
354,74	-1,9065E00
355,11	-2,9570E-01
355,48	1,0816E-01
355,85	-4,3385E-01
356,23	7,2758E-02
356,60	7,4221E-03
356,97	-8,8378E-02
357,34	-3,5563E-01
357,71	-2,6374E-01
358,08	-3,3223E-01
358,46	-7,2985E-03
358,83	0,0000E00
359,20	2,4829E-02
359,57	-1,4232E-02
359,94	1,0489E-01
360,31	-5,7630E-02
360,69	-3,6893E-02
361,06	4,9372E-01
361,43	-8,0408E-02
361,80	5,9325E-01
362,17	1,4270E-01
362,54	2,1656E-01
362,91	-9,2250E-02
363,29	1,1082E-02
363,66	-1,3452E-01
364,03	-1,4578E-01
364,40	3,8893E-01
364,77	-1,1599E-02
365,14	1,1730E-01
365,51	-2,6995E-01
365,88	1,6355E-01
366,26	9,8657E-02
366,63	-1,4273E-01
367,00	1,9571E-01
367,37	1,9033E-02
367,74	1,2447E-01
368,11	5,7303E-01
368,48	9,7040E-02
368,85	1,6012E-02
369,22	4,2475E-02
369,59	2,8361E-02
369,97	-5,3260E-01
370,34	-3,2532E-01
370,71	-1,0417E-01
371,08	-1,1759E-01
371,45	1,9614E-02
371,82	-1,1210E-02
372,19	-7,8241E-02
372,56	-1,2852E-01
372,93	4,6760E-01
373,30	-1,1960E-01
373,67	5,5505E-02
374,04	-3,2809E-01
374,41	-1,0158E-01
374,78	-9,6363E-02
375,15	-3,2979E-01
375,52	-2,8015E-01
375,89	-9,5193E-02
376,26	-5,3426E-02
376,63	2,0031E-01
377,00	-2,4928E-01
377,38	1,8117E-01
377,75	-2,2175E-01
378,12	7,2315E-02
378,49	-2,2734E-01
378,86	-1,3048E-01
379,23	1,0997E-01
379,60	2,8879E-01
379,97	-1,4125E-01
380,34	1,1589E-01
380,71	-7,3509E-02
381,08	6,2731E-02
381,45	8,6550E-02
381,82	2,8887E-01
382,19	-2,9290E-01
382,55	3,4720E-01
382,92	-1,3334E-01
383,29	-8,9205E-03
383,66	-1,3480E-01
384,03	-2,8331E-01
384,40	1,1597E-02
384,77	3,0785E-01
385,14	-9,4754E-02
385,51	-9,5054E-02
385,88	1,7213E-02
386,25	-3,0241E-02
386,62	6,6627E-02
386,99	4,4520E-02
387,36	8,9280E-02
387,73	-1,2145E-02
388,10	-1,5494E-01
388,47	-7,3637E-02
388,84	-2,5426E-01
389,21	0,0000E00
389,58	1,2551E-01
389,94	-1,3120E-01
390,31	8,2763E-02
390,68	-1,7166E-02
391,05	2,3722E-01
391,42	3,1724E-02
391,79	1,0964E-01
392,16	1,1283E-01
392,53	4,3730E-02
392,90	8,7737E-02
393,27	3,3547E-02
393,63	3,3496E-02
394,00	1,8136E-01
394,37	1,7655E-01
394,74	-3,8053E-02
395,11	-3,3856E-01
395,48	-4,5524E-02
395,85	4,4314E-02
396,22	-4,5447E-02
396,58	-2,1815E-01
396,95	-2,0337E-02
397,32	8,0336E-02
397,69	-9,8743E-02
398,06	-8,4948E-02
398,43	-3,3004E-02
398,80	8,8867E-02
399,16	1,9763E-02
399,53	-1,0903E-01
399,90	-6,3778E-02
400,27	1,7720E-02
400,64	6,9148E-02
401,01	-6,8492E-03
401,37	-1,8762E-01
401,74	-2,4146E-01
402,11	1,2817E-01
402,48	3,2422E-02
402,85	6,2638E-02
403,22	2,9937E-02
403,58	-2,5474E-02
403,95	3,1631E-02
404,32	-1,4281E-01
404,69	-1,1649E-01
405,06	-2,0714E-01
405,42	-3,3525E-02
405,79	-1,1858E-01
406,16	2,7291E-02
406,53	7,4463E-02
406,89	4,6456E-02
407,26	6,3868E-02
407,63	1,5457E-01
408,00	7,2052E-02
408,37	7,0650E-02
408,73	5,6243E-02
409,10	-4,6379E-02
409,47	8,9461E-02
409,84	2,1987E-02
410,20	9,2070E-02
410,57	1,5420E-01
410,94	-5,2594E-02
411,31	9,3199E-02
411,67	1,1091E-01
412,04	-1,4378E-01
412,41	2,4310E-01
412,77	1,6774E-01
413,14	5,1261E-03
413,51	-6,5155E-02
413,88	-1,0942E-02
414,24	9,8702E-02
414,61	1,5004E-01
414,98	2,4816E-01
415,34	1,2967E-01
415,71	1,6296E-01
416,08	1,8117E-01
416,45	3,0232E-01
416,81	1,6052E-01
417,18	2,9203E-01
417,55	2,4322E-01
417,91	3,8756E-01
418,28	2,0717E-01
418,65	3,3599E-01
419,01	7,0669E-02
419,38	3,1701E-01
419,75	3,2687E-01
420,11	4,5807E-01
420,48	3,5122E-01
420,85	5,6419E-01
421,21	7,0367E-01
421,58	6,3917E-01
421,95	6,6150E-01
422,31	7,8674E-01
422,68	7,1799E-01
423,05	5,9243E-01
423,41	6,9576E-01
423,78	6,7385E-01
424,15	9,3957E-01
424,51	9,7368E-01
424,88	9,8145E-01
425,24	1,0647E00
425,61	1,1986E00
425,98	1,3009E00
426,34	1,2907E00
426,71	1,2075E00
427,07	1,4486E00
427,44	1,4967E00
427,81	1,6904E00
428,17	1,7933E00
428,54	1,9307E00
428,90	2,1456E00
429,27	2,1635E00
429,64	2,3830E00
430,00	2,6898E00
430,37	2,7502E00
430,73	2,8313E00
431,10	3,4628E00
431,46	3,6809E00
431,83	3,8566E00
432,20	4,0452E00
432,56	5,0722E00
432,93	5,1595E00
433,29	5,5290E00
433,66	5,8357E00
434,02	6,2858E00
434,39	6,2849E00
434,75	7,3108E00
435,12	7,5371E00
435,49	8,0294E00
435,85	8,9022E00
436,22	9,8845E00
436,58	1,0174E01
436,95	1,0635E01
437,31	1,1998E01
437,68	1,1802E01
438,04	1,3270E01
438,41	1,4017E01
438,77	1,4624E01
439,14	1,5037E01
439,50	1,6383E01
439,87	1,6858E01
440,23	1,7727E01
440,60	1,7843E01
440,96	1,8584E01
441,33	1,9961E01
441,69	2,0941E01
442,06	2,1305E01
442,42	2,1798E01
442,78	2,2277E01
443,15	2,4009E01
443,51	2,4970E01
443,88	2,4697E01
444,24	2,5186E01
444,61	2,6730E01
444,97	2,7444E01
445,34	2,9074E01
445,70	3,0588E01
446,07	3,0446E01
446,43	3,0379E01
446,79	3,1364E01
447,16	3,2857E01
447,52	3,3406E01
447,89	3,4133E01
448,25	3,4622E01
448,62	3,5984E01
448,98	3,7383E01
449,34	3,7109E01
449,71	3,7145E01
450,07	3,7167E01
450,44	3,8134E01
450,80	3,7233E01
451,16	3,8313E01
451,53	3,9938E01
451,89	3,8268E01
452,25	3,9040E01
452,62	3,8753E01
452,98	3,7382E01
453,35	3,8079E01
453,71	3,5987E01
454,07	3,6319E01
454,44	3,5394E01
454,80	3,4316E01
455,16	3,4370E01
455,53	3,2332E01
455,89	3,2147E01
456,25	3,2232E01
456,62	2,9564E01
456,98	2,9044E01
457,34	2,7143E01
457,71	2,6580E01
458,07	2,5711E01
458,43	2,3689E01
458,80	2,2737E01
459,16	2,2513E01
459,52	2,1137E01
459,89	2,0196E01
460,25	1,9487E01
460,61	1,8502E01
460,98	1,7180E01
461,34	1,7074E01
461,70	1,6088E01
462,07	1,6014E01
462,43	1,5131E01
462,79	1,4588E01
463,15	1,4277E01
463,52	1,2878E01
463,88	1,2594E01
464,24	1,2517E01
464,61	1,1576E01
464,97	1,1162E01
465,33	1,0905E01
465,69	1,0174E01
466,06	9,7825E00
466,42	9,4906E00
466,78	9,0655E00
467,14	8,5219E00
467,51	8,3470E00
467,87	8,0310E00
468,23	7,8218E00
468,59	7,1960E00
468,95	7,1000E00
469,32	6,7323E00
469,68	6,4902E00
470,04	6,0244E00
470,40	5,7146E00
470,77	5,6765E00
471,13	5,4696E00
471,49	5,0586E00
471,85	5,0415E00
472,21	4,6726E00
472,58	4,6735E00
472,94	4,2223E00
473,30	4,3026E00
473,66	3,9791E00
474,02	3,9239E00
474,39	3,6836E00
474,75	3,5150E00
475,11	3,1914E00
475,47	2,9470E00
475,83	2,9635E00
476,19	2,8664E00
476,56	2,6577E00
476,92	2,4888E00
477,28	2,2525E00
477,64	2,1875E00
478,00	2,0528E00
478,36	2,0844E00
478,72	1,8770E00
479,09	1,7195E00
479,45	1,7162E00
479,81	1,5334E00
480,17	1,5489E00
480,53	1,4733E00
480,89	1,3353E00
481,25	1,2903E00
481,61	1,2356E00
481,97	1,2256E00
482,34	1,0746E00
482,70	9,7609E-01
483,06	1,0027E00
483,42	1,0225E00
483,78	1,0074E00
484,14	9,2593E-01
484,50	8,7330E-01
484,86	8,8216E-01
485,22	7,1713E-01
485,58	6,8885E-01
485,94	7,2089E-01
486,31	6,9197E-01
486,67	6,9880E-01
487,03	5,2969E-01
487,39	5,6138E-01
487,75	5,2190E-01
488,11	4,7037E-01
488,47	5,0800E-01
488,83	4,5895E-01
489,19	4,5655E-01
489,55	4,5795E-01
489,91	3,9160E-01
490,27	3,5422E-01
490,63	4,0145E-01
490,99	3,8318E-01
491,35	3,6684E-01
491,71	2,7885E-01
492,07	2,5134E-01
492,43	2,6615E-01
492,79	2,4098E-01
493,15	2,2949E-01
493,51	1,8333E-01
493,87	1,6596E-01
494,23	2,3587E-01
494,59	1,7599E-01
494,95	1,6477E-01
495,31	1,2545E-01
495,67	9,1062E-02
496,03	1,4059E-01
496,39	1,5400E-01
496,75	3,9545E-02
497,11	1,0614E-01
497,47	1,1080E-01
497,83	4,7695E-02
498,19	2,0162E-02
498,55	1,2849E-02
498,91	2,4826E-02
499,27	4,5449E-02
499,63	5,9349E-02
499,98	5,4297E-02
500,34	5,5356E-02
500,70	1,3829E-02
501,06	1,3816E-02
501,42	1,5191E-03
501,78	1,6746E-02
502,14	9,3378E-02
502,50	8,4196E-02
502,86	3,1077E-02
503,22	2,2031E-02
503,58	-5,3230E-02
503,94	-1,6422E-02
504,29	-5,6325E-02
504,65	3,9857E-02
505,01	2,2306E-02
505,37	4,4035E-03
505,73	-1,9026E-02
506,09	3,6473E-02
506,45	4,1090E-02
506,81	-4,4240E-03
507,16	3,9311E-02
507,52	1,2999E-02
507,88	-5,7935E-03
508,24	3,9333E-02
508,60	4,2281E-02
508,96	-8,7687E-03
509,32	-3,1596E-02
509,67	-3,6005E-02
510,03	-1,1559E-02
510,39	8,7140E-03
510,75	0,0000E00
511,11	4,4753E-02
511,47	6,7656E-02
511,82	5,3415E-02
512,18	5,7341E-03
512,54	-7,2478E-03
512,90	-2,8645E-03
513,26	0,0000E00
513,61	4,3424E-02
513,97	1,4177E-03
514,33	-7,2226E-03
514,69	2,4483E-02
515,05	-3,5495E-02
515,40	-6,9205E-02
515,76	-1,8530E-02
516,12	2,2994E-02
516,48	2,1538E-02
516,83	-2,1933E-02
517,19	-8,5879E-03
517,55	2,5845E-02
517,91	-2,1814E-02
518,26	2,4520E-02
518,62	-1,2849E-02
518,98	5,7811E-03
519,34	-2,9157E-02
519,69	-1,7449E-02
520,05	1,7324E-02
520,41	-2,9104E-03
520,77	2,4342E-02
521,12	-3,9067E-02
521,48	1,5887E-02
521,84	2,7220E-02
522,19	6,6671E-02
522,55	-1,7239E-02
522,91	2,0098E-02
523,27	3,4403E-02
523,62	2,1805E-02
523,98	1,0055E-02
524,34	-2,8678E-03
524,69	-4,0605E-02
525,05	-8,6883E-03
525,41	-4,5117E-02
525,76	3,9665E-02
526,12	1,8629E-02
526,48	5,4694E-02
526,83	-2,3147E-02
527,19	2,4520E-02
527,55	2,0411E-02
527,90	2,2823E-02
528,26	-4,3547E-03
528,62	-2,1897E-02
528,97	-4,2827E-03
529,33	-3,4248E-02
529,69	-1,4240E-03
530,04	3,5696E-02
530,40	-1,0078E-02
530,76	-1,9842E-02
531,11	-4,2917E-03
531,47	-8,5780E-03
531,82	-7,8497E-02
532,18	-5,7266E-02
532,54	2,1123E-02
532,89	-4,2816E-03
533,25	-4,2434E-03
533,60	9,9094E-03
533,96	-1,4377E-03
534,32	-1,4295E-02
534,67	1,2774E-02
535,03	-1,4225E-03
535,38	5,6871E-03
535,74	3,3495E-02
536,10	-2,6796E-02
536,45	-1,8219E-02
536,81	3,5431E-02
537,16	1,4028E-02
537,52	-1,2598E-02
537,87	-2,2511E-02
538,23	-1,1186E-02
538,58	1,1037E-02
538,94	3,7673E-02
539,30	2,8105E-02
539,65	1,3792E-02
540,01	1,1114E-02
540,36	1,3789E-02
540,72	-3,0041E-02
541,07	0,0000E00
541,43	-1,3729E-02
541,78	1,2435E-02
542,14	-4,6602E-02
542,49	-2,0518E-02
542,85	2,7154E-03
543,20	-6,8127E-03
543,56	-3,9767E-02
543,91	2,4672E-02
544,27	4,2577E-02
544,62	-2,5501E-02
544,98	-4,2354E-02
545,33	4,0753E-03
545,69	2,0171E-02
546,04	-3,6450E-02
546,40	-2,0204E-02
546,75	-2,4355E-02
547,10	1,3496E-02
547,46	-9,3742E-03
547,81	0,0000E00
548,17	1,6204E-02
548,52	2,8503E-02
548,88	-1,0716E-02
549,23	1,3292E-03
549,59	1,4841E-02
549,94	1,3295E-03
550,29	-1,3371E-03
550,65	-1,3423E-03
551,00	3,2140E-02
551,36	4,1501E-02
551,71	2,6592E-03
552,06	3,2094E-02
552,42	0,0000E00
552,77	-2,9261E-02
553,13	2,6635E-02
553,48	4,7739E-02
553,83	-1,2101E-02
554,19	1,3214E-02
554,54	-3,6212E-02
554,90	1,0728E-02
555,25	-1,7434E-02
555,60	-3,9925E-03
555,96	1,3481E-03
556,31	-3,0670E-02
556,66	-6,6862E-03
557,02	-1,3360E-02
557,37	-2,4115E-02
557,72	-4,7379E-02
558,08	-4,0613E-03
558,43	-4,6246E-02
558,79	4,0549E-03
559,14	-4,8927E-02
559,49	1,6085E-02
559,85	-5,4377E-03
560,20	-3,5794E-02
560,55	-1,2357E-02
560,90	-3,5717E-02
561,26	-8,1998E-03
561,61	-2,0471E-02
561,96	1,3760E-02
562,32	-1,6481E-02
562,67	2,3635E-02
563,02	4,1549E-03
563,38	-6,9241E-03
563,73	1,2437E-02
564,08	0,0000E00
564,43	-4,3689E-02
564,79	4,6355E-02
565,14	-1,1132E-02
565,49	2,8182E-03
565,84	2,1159E-02
566,20	1,1281E-02
566,55	1,4140E-03
566,90	4,2714E-03
567,25	2,2637E-02
567,61	-1,7152E-02
567,96	-2,7176E-02
568,31	-1,7301E-02
568,66	-3,4116E-02
569,02	-1,5912E-02
569,37	4,2184E-02
569,72	-4,6479E-02
570,07	-1,5822E-02
570,42	-3,4884E-02
570,78	-2,3116E-02
571,13	1,0339E-02
571,48	-3,0647E-02
571,83	-7,3100E-03
572,18	-2,7830E-02
572,54	2,3580E-02
572,89	-2,6540E-02
573,24	1,3347E-02
573,59	-1,1721E-02
573,94	-1,7638E-02
574,30	-4,4129E-03
574,65	-5,9321E-02
575,00	-1,1771E-02
575,35	-2,6438E-02
575,70	-2,9712E-03
576,05	1,4641E-03
576,40	1,6405E-02
576,76	1,0337E-02
577,11	0,0000E00
577,46	4,4413E-03
577,81	3,2768E-02
578,16	2,6789E-02
578,51	5,2105E-02
578,86	1,1974E-02
579,21	-4,5409E-03
579,57	2,4209E-02
579,92	-1,0480E-02
580,27	8,5894E-02
580,62	-4,9970E-02
580,97	1,6567E-02
581,32	-4,3420E-02
581,67	-9,0730E-03
582,02	-2,6809E-02
582,37	-9,0292E-03
582,72	-4,4681E-03
583,08	-6,9155E-02
583,43	-4,6880E-02
583,78	9,1240E-03
584,13	-1,3691E-02
584,48	-7,5888E-03
584,83	-4,2165E-02
585,18	-3,9267E-02
585,53	-4,5446E-03
585,88	-8,0365E-02
586,23	-2,6112E-02
586,58	-5,0470E-02
586,93	4,5436E-03
587,28	2,1464E-02
587,63	-4,4108E-02
587,98	-1,3829E-02
588,33	-3,0295E-02
588,68	3,0827E-03
589,03	-5,4554E-02
589,38	-6,1450E-03
589,73	1,0643E-02
590,08	0,0000E00
590,43	-4,7495E-02
590,78	-3,2017E-02
591,13	-2,1296E-02
591,48	6,4031E-02
591,83	3,5673E-02
592,18	3,0613E-02
592,53	4,5933E-03
592,88	3,0586E-02
593,23	3,0429E-02
593,58	-1,0746E-02
593,93	6,1689E-03
594,28	-1,3824E-02
594,63	6,1436E-03
594,98	7,7379E-03
595,33	-9,2751E-03
595,68	-2,0017E-02
596,02	-3,0998E-03
596,37	-6,2648E-02
596,72	3,7168E-02
597,07	1,2449E-02
597,42	-1,4065E-02
597,77	-9,3168E-03
598,12	7,8414E-03
598,47	-2,6737E-02
598,82	-2,4936E-02
599,17	-3,1335E-02
599,52	-1,4187E-02
599,86	-1,2603E-02
600,21	6,2693E-03
600,56	-1,4286E-02
600,91	3,1801E-03
601,26	-4,6042E-02
601,61	-1,5814E-03
601,96	-3,9747E-02
602,30	3,8187E-02
602,65	-2,8597E-02
603,00	1,1137E-02
603,35	2,0735E-02
603,70	5,7582E-02
604,05	1,2810E-02
604,40	-6,7864E-02
604,74	-5,0145E-02
605,09	-4,0670E-02
605,44	-7,8819E-02
605,79	-5,3581E-02
606,14	4,9039E-03
606,48	-3,4393E-02
606,83	-3,2910E-03
607,18	-3,1237E-02
607,53	3,6285E-02
607,88	-4,8085E-02
608,22	-4,5138E-02
608,57	-4,9923E-03
608,92	-4,5366E-02
609,27	2,1742E-02
609,62	2,3529E-02
609,96	1,3501E-02
610,31	2,3658E-02
610,66	2,7030E-02
611,01	1,0130E-02
611,35	1,1874E-02
611,70	-2,0667E-02
612,05	-7,3133E-02
612,40	1,1994E-02
612,74	3,9574E-02
613,09	-2,0716E-02
613,44	4,1278E-02
613,79	3,6350E-02
614,13	6,9824E-03
614,48	-5,7297E-02
614,83	-2,9731E-02
615,17	-6,4918E-02
615,52	-1,7637E-02
615,87	-2,4775E-02
616,22	-1,7623E-02
616,56	-1,2386E-02
616,91	-6,0317E-02
617,26	-3,7384E-02
617,60	-6,6099E-02
617,95	-1,0743E-02
618,30	-6,1496E-02
618,64	-3,0650E-02
618,99	3,4292E-02
619,34	9,0582E-03
619,68	-8,5125E-02
620,03	-3,0765E-02
620,38	-1,0933E-02
620,72	-1,8258E-03
621,07	-4,5897E-02
621,42	7,3141E-03
621,76	6,5980E-02
622,11	-3,6787E-03
622,45	2,3977E-02
622,80	3,6842E-03
623,15	1,8746E-02
623,49	5,5827E-03
623,84	-1,4931E-02
624,18	-4,4727E-02
624,53	-3,5533E-02
624,88	1,8685E-03
625,22	-1,5106E-02
625,57	5,5889E-03
625,91	-4,5455E-02
626,26	-2,6508E-02
626,61	-3,7865E-03
626,95	2,6573E-02
627,30	-1,9164E-02
627,64	-2,4625E-02
627,99	-3,0551E-02
628,33	2,2832E-02
628,68	2,8543E-02
629,03	-7,7015E-03
629,37	7,8869E-02
629,72	-1,1554E-02
630,06	-6,7720E-02
630,41	5,6424E-02
630,75	3,5257E-02
631,10	-5,4543E-02
631,44	-1,9404E-03
631,79	-6,8525E-02
632,13	-1,5768E-02
632,48	-2,3556E-02
632,82	-8,0302E-02
633,17	2,1911E-02
633,51	4,1639E-02
633,86	-4,5597E-02
634,20	-2,4010E-02
634,55	-2,7970E-02
634,89	3,1997E-02
635,24	2,4019E-02
635,58	-3,7998E-02
635,93	0,0000E00
636,27	1,4008E-02
636,62	-2,0057E-02
636,96	7,0150E-02
637,30	3,0376E-02
637,65	1,8132E-02
637,99	4,2540E-02
638,34	1,0075E-02
638,68	-5,2750E-02
639,03	-3,6520E-02
639,37	-2,8473E-02
639,71	-6,0980E-03
640,06	9,0106E-02
640,40	-8,1806E-03
640,75	-4,5095E-02
641,09	-4,1037E-03
641,44	-5,5313E-02
641,78	3,7287E-02
642,12	-8,2569E-03
642,47	-3,5012E-02
642,81	-4,1384E-03
643,15	2,0912E-03
643,50	-5,6300E-02
643,84	-4,1444E-03
644,19	-8,3231E-03
644,53	-1,6712E-02
644,87	3,5309E-02
645,22	1,0501E-02
645,56	2,1076E-02
645,90	-7,3909E-02
646,25	-9,7502E-02
646,59	1,7120E-02
646,93	2,7738E-02
647,28	-8,5098E-03
647,62	6,3675E-03
647,96	-2,5764E-02
648,31	-5,1093E-02
648,65	-8,3312E-02
648,99	-5,9835E-02
649,34	-1,2904E-02
649,68	-5,1434E-02
650,02	-4,4961E-02
650,36	-4,1011E-02
650,71	-4,1307E-02
651,05	-5,8516E-02
651,39	3,0588E-02
651,74	3,2773E-02
652,08	0,0000E00
652,42	3,9284E-02
652,76	3,0831E-02
653,11	-1,0971E-02
653,45	1,3153E-02
653,79	6,6674E-03
654,13	-3,5484E-02
654,48	6,6950E-03
654,82	-1,1188E-02
655,16	4,4743E-02
655,50	1,8144E-02
655,85	1,5824E-02
656,19	-4,9125E-02
656,53	-2,4649E-02
656,87	3,3779E-02
657,21	2,9323E-02
657,56	-3,4085E-02
657,90	-5,4330E-02
658,24	-5,6990E-02
658,58	6,3420E-02
658,92	3,1757E-02
659,27	-2,9808E-02
659,61	-8,0561E-02
659,95	4,1263E-02
660,29	9,2285E-03
660,63	3,9316E-02
660,97	-4,6148E-02
661,32	0,0000E00
661,66	-4,6577E-03
662,00	-2,8157E-02
662,34	-6,3117E-02
662,68	-2,1312E-02
663,02	-9,4166E-02
663,37	4,6888E-03
663,71	2,3784E-03
664,05	-7,3248E-02
664,39	-1,6648E-02
664,73	9,5239E-03
665,07	-1,2071E-02
665,41	3,8324E-02
665,75	2,9127E-02
666,09	-7,2187E-03
666,44	8,7357E-02
666,78	-1,2094E-02
667,12	2,9222E-02
667,46	-4,4226E-02
667,80	-4,1650E-02
668,14	2,2138E-02
668,48	1,7329E-02
668,82	-1,2395E-02
669,16	1,4892E-02
669,50	-3,7231E-02
669,84	-1,7460E-02
670,18	-4,9761E-03
670,52	-9,3571E-02
670,86	5,5798E-02
671,20	-1,2641E-02
671,54	-5,0920E-03
671,88	-7,6363E-03
672,22	-3,0328E-02
672,57	-2,8355E-02
672,91	-6,6658E-02
673,25	-1,0284E-02
673,59	-7,7946E-02
673,93	1,0453E-02
674,27	-1,0490E-02
674,61	-1,0509E-02
674,95	-4,6877E-02
675,28	5,0157E-02
675,62	-8,9894E-02
675,96	3,6851E-02
676,30	-1,5929E-02
676,64	-3,2153E-02
676,98	-1,8573E-02
677,32	-2,4170E-02
677,66	8,0705E-03
678,00	1,3023E-01
678,34	-2,7063E-03
678,68	-5,9215E-02
679,02	-2,9655E-02
679,36	-2,4536E-02
679,70	-1,0885E-02
680,04	2,4583E-02
680,38	-3,3163E-02
680,72	-8,2586E-02
681,06	-7,7236E-02
681,39	-3,5824E-02
681,73	-1,4705E-01
682,07	-4,4594E-02
682,41	1,6816E-02
682,75	-1,3450E-01
683,09	-6,4848E-02
683,43	-1,4261E-02
683,77	1,4241E-02
684,11	-1,6968E-02
684,44	4,8570E-02
684,78	-1,1405E-02
685,12	-1,3800E-01
685,46	4,9488E-02
685,80	-1,4135E-01
686,14	-6,9536E-02
686,48	1,4543E-02
686,81	-1,3026E-01
687,15	4,0803E-02
687,49	1,1746E-02
687,83	2,3412E-02
688,17	-2,6856E-02
688,51	-8,8604E-03
688,84	-5,6994E-02
689,18	-1,1935E-02
689,52	-5,9762E-03
689,86	-1,0189E-01
690,20	2,4086E-02
690,53	5,1419E-02
690,87	-8,9729E-02
691,21	-3,0446E-02
691,55	-2,1441E-02
691,88	-2,7538E-02
692,22	-5,5725E-02
692,56	-8,1601E-02
692,90	7,7151E-02
693,23	0,0000E00
693,57	1,8482E-02
693,91	-1,1069E-01
694,25	-3,1064E-03
694,58	9,3657E-03
694,92	1,4345E-01
695,26	9,4062E-03
695,60	-5,9658E-02
695,93	-1,0116E-01
696,27	-1,0592E-01
696,61	2,2375E-02
696,94	-1,8943E-02
697,28	-2,5392E-02
697,62	3,1977E-02
697,96	3,1853E-02
698,29	-2,8631E-02
698,63	-4,8213E-02
698,97	-3,2111E-02
699,30	-5,1755E-02
699,64	-1,0020E-01
699,98	-2,2757E-02
700,31	-3,5354E-02
700,65	-1,6111E-01
700,99	1,9484E-02
701,32	-5,2036E-02
701,66	5,2053E-02
702,00	9,5067E-02
702,33	-1,9660E-02
702,67	4,2650E-02
703,00	2,3154E-02
703,34	3,2890E-03
703,68	-8,8855E-02
704,01	-7,0123E-02
704,35	-8,4637E-02
704,69	-5,9577E-02
705,02	6,6427E-03
705,36	-6,3149E-02
705,69	-1,1304E-01
706,03	4,6951E-02
706,36	-1,8387E-01
706,70	-6,3938E-02
707,04	-8,0675E-02
707,37	4,0493E-02
707,71	-3,0432E-02
708,04	-6,4619E-02
708,38	-2,0405E-02
708,71	-7,1381E-02
709,05	-1,0280E-02
709,39	7,8373E-02
709,72	-7,1580E-02
710,06	5,4592E-02
710,39	-4,4908E-02
710,73	6,8929E-03
711,06	-4,8023E-02
711,40	6,8594E-03
711,73	-2,0812E-02
712,07	-3,1128E-02
712,40	-1,1559E-01
712,74	3,5143E-03
713,07	8,3690E-02
713,41	-4,2219E-02
713,74	-9,5180E-02
714,08	4,2575E-02
714,41	-7,3942E-02
714,75	-3,1950E-02
715,08	-4,5789E-02
715,42	-4,2469E-02
715,75	-1,0658E-01
716,08	-5,7106E-02
716,42	-7,1421E-03
716,75	-6,1600E-02
717,09	8,6646E-02
717,42	-7,2129E-02
717,76	-3,9521E-02
718,09	3,6219E-03
718,43	3,9799E-02
718,76	-1,7641E-01
719,09	-1,0233E-01
719,43	-7,3377E-02
719,76	-4,0405E-02
720,10	-1,4662E-02
720,43	3,2864E-02
720,76	-1,8223E-02
721,10	2,9543E-02
721,43	-8,4395E-02
721,76	1,4747E-02
722,10	6,6220E-02
722,43	-1,4164E-01
722,77	3,3208E-02
723,10	4,8244E-02
723,43	-9,6973E-02
723,77	-1,1304E-02
724,10	-1,0069E-01
724,43	-4,5427E-02
724,77	-2,4144E-01
725,10	-1,2503E-01
725,43	3,7907E-03
725,77	5,3252E-02
726,10	-2,6581E-02
726,43	0,0000E00
726,77	-7,6461E-03
727,10	-1,5453E-02
727,43	3,0824E-02
727,77	-2,3046E-02
728,10	1,5023E-01
728,43	5,4176E-02
728,76	-1,9427E-02
729,10	-1,0578E-01
729,43	4,2761E-02
729,76	0,0000E00
730,09	-4,7355E-02
730,43	7,0516E-02
730,76	-7,0799E-02
731,09	7,8741E-03
731,42	4,3589E-02
731,76	-1,5968E-02
732,09	-1,2090E-01
732,42	-8,0251E-03
732,75	8,0733E-03
733,09	-4,8182E-02
733,42	-8,0669E-02
733,75	4,4332E-02
734,08	1,2252E-02
734,41	1,1414E-01
734,75	7,7483E-02
735,08	5,7964E-02
735,41	-1,4057E-01
735,74	-9,0563E-02
736,07	4,5810E-02
736,41	-3,7557E-02
736,74	3,3523E-02
737,07	-2,1208E-01
737,40	3,8088E-02
737,73	-1,1797E-01
738,06	8,3557E-03
738,40	2,1120E-02
738,73	-1,6007E-01
739,06	-5,5915E-02
739,39	-5,5959E-02
739,72	-8,6550E-03
740,05	-3,0173E-02
740,38	-8,2167E-02
740,72	-3,2071E-01
741,05	1,1307E-01
741,38	-9,2161E-02
741,71	-2,7237E-01
742,04	-1,2787E-01
742,37	-5,3011E-02
742,70	-6,1639E-02
743,03	-4,4573E-03
743,36	-4,4834E-02
743,69	-2,6942E-02
744,02	-1,0867E-01
744,36	-8,0996E-02
744,69	-5,8873E-02
745,02	-8,1975E-02
745,35	-1,4121E-01
745,68	4,1018E-02
746,01	1,0520E-01
746,34	-7,8331E-02
746,67	-1,9563E-01
747,00	-1,0778E-01
747,33	-3,7441E-02
747,66	2,3498E-02
747,99	-8,9082E-02
748,32	-3,3140E-02
748,65	1,4272E-01
748,98	-5,1523E-02
749,31	2,3895E-02
749,64	1,9159E-02
749,97	-1,6702E-01
750,30	-4,8213E-03
750,63	-7,7183E-02
750,96	-9,6977E-03
751,29	2,4283E-02
751,62	1,0633E-01
751,95	-3,4549E-02
752,28	8,8906E-02
752,61	1,4870E-02
752,94	-7,4316E-02
753,27	-1,7283E-01
753,60	-1,3505E-01
753,92	-9,9820E-02
754,25	-1,5126E-01
754,58	4,6358E-02
754,91	-1,6676E-01
755,24	-1,4312E-01
755,57	-1,5453E-01
755,90	-1,6907E-01
756,23	-1,0848E-01
756,56	-2,7301E-01
756,89	-2,5951E-02
757,22	1,0348E-02
757,54	-4,7446E-02
757,87	5,2946E-02
758,20	7,3609E-02
758,53	-1,5343E-01
758,86	-3,7213E-02
759,19	7,9837E-02
759,52	-2,1296E-02
759,84	-1,5585E-01
760,17	0,0000E00
760,50	-1,8073E-01
760,83	-2,4961E-01
761,16	-5,0516E-02
761,49	2,2043E-02
761,81	5,5039E-03
762,14	-1,3383E-01
762,47	9,4954E-02
762,80	-8,9522E-02
763,13	-1,1250E-01
763,45	-1,4234E-01
763,78	-3,9449E-02
764,11	5,6471E-03
764,44	-7,9405E-02
764,77	-2,5032E-01
765,09	-2,8754E-02
765,42	-1,0928E-01
765,75	6,9105E-02
766,08	-2,0080E-01
766,40	-1,8687E-01
766,73	-2,9241E-02
767,06	5,8525E-02
767,39	-8,2912E-02
767,71	-9,4244E-02
768,04	3,2374E-01
768,37	2,9661E-02
768,70	-1,0768E-01
769,02	1,6894E-01
769,35	-6,6316E-02
769,68	9,0823E-02
770,00	-7,2423E-02
770,33	-2,4089E-02
770,66	-2,4340E-02
770,99	-1,3612E-01
771,31	-1,8467E-01
771,64	1,5512E-01
771,97	-1,8643E-02
772,29	-3,0946E-02
772,62	-1,1865E-01
772,95	-3,1152E-02
773,27	-3,1509E-02
773,60	-7,5384E-02
773,93	-8,7863E-02
774,25	6,3310E-02
774,58	6,3457E-02
774,90	5,0337E-02
775,23	0,0000E00
775,56	-2,5635E-02
775,88	7,7349E-02
776,21	9,8657E-02
776,54	3,9448E-02
776,86	-1,7605E-01
777,19	4,6019E-02
777,51	4,6184E-02
777,84	-1,3212E-01
778,16	-1,2595E-01
778,49	-6,6802E-03
778,82	-1,3405E-02
779,14	-1,1893E-01
779,47	-1,6219E-01
779,79	-9,4035E-02
780,12	-1,4928E-01
780,44	-3,1435E-01
780,77	-2,0605E-01
781,10	-1,1682E-01
781,42	-2,1304E-01
781,75	3,4921E-02
782,07	3,5023E-02
782,40	-1,0541E-01
782,72	-7,7109E-02
783,05	-1,7163E-01
783,37	4,2887E-02
783,70	-2,1105E-01
784,02	9,9537E-02
784,35	7,1061E-02
784,67	-4,3122E-02
785,00	6,4705E-02
785,32	-1,2506E-01
785,65	1,5285E-01
785,97	-2,6729E-01
786,30	-2,2111E-02
786,62	-1,0959E-01
786,94	-1,6290E-01
787,27	-2,2030E-01
787,59	-6,6753E-02
787,92	-4,4663E-02
788,24	-5,9450E-02
788,57	-7,4752E-02
788,89	-7,4732E-03
789,22	-7,4135E-03
789,54	-1,8490E-01
789,86	-2,1807E-01
790,19	1,5204E-01
790,51	1,4826E-02
790,84	-2,3403E-01
791,16	-2,2420E-02
791,48	-2,4554E-01
791,81	-9,7987E-02
792,13	1,2779E-01
792,45	-3,6609E-01
792,78	-2,4312E-01
793,10	-8,2018E-02
793,43	-9,7699E-02
793,75	-3,7365E-02
794,07	-1,2714E-01
794,40	-1,3417E-01
794,72	-3,0110E-02
795,04	-9,0079E-02
795,37	1,7174E-01
795,69	2,2479E-02
796,01	-1,1988E-01
796,34	-8,2371E-02
796,66	-4,4651E-02
796,98	-1,1044E-01
797,30	-7,5388E-03
797,63	7,4202E-02
797,95	-8,8230E-02
798,27	-2,2107E-02
798,60	2,2163E-01
798,92	1,3415E-01
799,24	-7,3679E-03
799,56	1,5579E-01
799,89	-3,1929E-01
800,21	-9,5692E-02
800,53	7,3486E-03
800,85	1,3916E-01
801,18	2,3005E-01
801,50	-2,3713E-01
801,82	-3,7538E-01
802,14	1,7849E-01
802,47	8,1935E-02
802,79	-1,8018E-01
803,11	-1,1877E-01
803,43	-1,7710E-01
803,75	-8,8791E-02
804,08	-2,5963E-01
804,40	7,4521E-03
804,72	-8,0844E-02
805,04	3,7362E-02
805,36	-2,0541E-01
805,69	6,7547E-02
806,01	7,5207E-03
806,33	-1,4313E-01
806,65	-3,7299E-01
806,97	-2,1083E-01
807,29	-2,2765E-02
807,62	-2,4383E-01
807,94	2,0653E-01
808,26	-2,8448E-01
808,58	3,8405E-02
808,90	-1,9814E-01
809,22	2,9386E-01
809,54	6,9951E-02
809,86	-2,6356E-01
810,18	-3,0781E-02
810,51	-3,1326E-02
810,83	-1,0076E-01
811,15	-2,3292E-01
811,47	-1,0842E-01
811,79	-3,2667E-01
812,11	-7,0645E-02
812,43	-1,5008E-01
812,75	-9,5145E-02
813,07	1,2573E-01
813,39	4,9041E-01
813,71	2,0498E-01
814,03	1,6054E-02
814,35	-3,6381E-01
814,67	2,3993E-02
814,99	7,9948E-02
815,31	3,1978E-02
815,64	7,2306E-02
815,96	-6,5347E-02
816,28	-8,1201E-02
816,60	1,4715E-01
816,92	-5,7234E-02
817,24	-3,2638E-02
817,56	-1,3131E-01
817,88	-1,4731E-01
818,19	0,0000E00
818,51	-4,9747E-02
818,83	6,6396E-02
819,15	-1,6012E-01
819,47	-6,7136E-02
819,79	-1,5058E-01
820,11	-1,6904E-01
820,43	-1,1652E-01
820,75	7,6268E-02
821,07	3,8764E-01
821,39	1,7898E-01
821,71	2,4746E-01
822,03	-1,1163E-01
822,35	7,7272E-02
822,67	3,2617E-01
822,99	-1,9770E-01
823,31	0,0000E00
823,62	1,1338E-01
823,94	-1,9263E-01
824,26	-1,1465E-01
824,58	-5,2792E-02
824,90	-3,1376E-01
825,22	1,7670E-02
825,54	-8,8621E-03
825,86	-2,5089E-01
826,17	-2,6859E-02
826,49	-4,5053E-01
826,81	6,3163E-02
827,13	-1,6360E-01
827,45	-6,3236E-02
827,77	2,7327E-02
828,08	-3,6629E-02
828,40	-1,8307E-02
828,72	-4,0852E-01
829,04	9,2686E-02
829,36	-2,9886E-01
829,67	-2,2149E-01
829,99	-6,5306E-02
830,31	1,0405E-01
830,63	1,7714E-01
830,95	-8,4904E-02
831,26	-1,1392E-01
831,58	-1,2354E-01
831,90	-4,8103E-02
832,22	-2,2232E-01
832,53	-9,7319E-02
832,85	-2,0334E-01
833,17	-6,8789E-02
833,49	-1,4904E-01
833,80	4,9087E-02
834,12	1,9711E-02
834,44	4,9922E-02
834,76	5,9949E-02
835,07	2,8009E-01
835,39	1,0988E-01
835,71	-1,7996E-01
836,02	-1,5255E-01
836,34	4,0624E-02
836,66	-5,0244E-02
836,97	3,0483E-02
837,29	1,0174E-02
837,61	1,5281E-01
837,93	-5,0618E-02
838,24	-9,2570E-02
838,56	1,1402E-01
838,88	7,2046E-02
839,19	1,6625E-01
839,51	-3,1439E-02
839,82	-1,0519E-02
840,14	6,2943E-02
840,46	-1,0690E-01
840,77	1,6932E-01
841,09	-1,4849E-01
841,41	-2,2181E-01
841,72	7,5637E-02
842,04	-5,4482E-01
842,35	-1,6134E-01
842,67	3,3541E-01
842,99	-3,1392E-01
843,30	-5,1818E-01
843,62	1,8717E-01
843,93	0,0000E00
844,25	-1,2221E-01
844,56	3,3390E-02
844,88	-3,2516E-01
845,20	-1,8876E-01
845,51	1,4611E-01
845,83	-5,6800E-02
846,14	-7,8494E-02
846,46	3,1153E-01
846,77	6,7418E-02
847,09	9,1848E-02
847,40	-1,6086E-01
847,72	-4,1452E-01
848,03	-2,1782E-01
848,35	-1,7476E-01
848,66	-1,9948E-01
848,98	-2,4490E-01
849,29	-2,2112E-01
849,61	3,8223E-01
849,92	-3,5550E-01
850,24	-5,0126E-01
850,55	-3,2635E-01
850,87	-7,1378E-02
851,18	-4,8574E-02
851,50	-2,3907E-02
851,81	-1,8252E-01
852,12	-5,0335E-01
852,44	-5,2639E-01
852,75	-1,2321E-02
853,07	-2,4490E-02
853,38	-5,3380E-01
853,70	-2,4815E-02
854,01	-2,9923E-01
854,32	-3,8983E-01
854,64	-1,2745E-02
854,95	-1,2540E-02
855,27	1,3885E-01
855,58	0,0000E00
855,89	-2,7203E-01
856,21	8,9080E-02
856,52	-1,4330E-01
856,83	-9,1592E-02
857,15	-1,0358E-01
857,46	-5,1608E-01
857,77	-6,1378E-01
858,09	1,9747E-01
858,40	-3,7702E-01
858,71	5,3690E-02
859,03	-3,3562E-01
859,34	2,1715E-01
859,65	2,6720E-01
859,97	-5,4192E-02
860,28	-9,6388E-02
860,59	8,2064E-02
860,91	-1,3767E-01
861,22	-1,8018E-01
861,53	-3,3186E-01
861,84	9,6844E-02
862,16	3,0490E-01
862,47	-1,7992E-01
862,78	0,0000E00
863,10	-6,9967E-02
863,41	-5,5784E-01
863,72	-5,6277E-01
864,03	-6,2483E-01
864,35	-3,0322E-01
864,66	2,5966E-01
864,97	0,0000E00
865,28	-1,6181E-01
865,59	-3,3928E-01
865,91	3,0912E-01
866,22	4,4127E-02
866,53	-1,4721E-01
866,84	3,9091E-01
867,15	-5,9957E-02
867,47	9,0183E-02
867,78	3,3601E-01
868,09	2,9008E-01
868,40	-1,5202E-01
868,71	2,1123E-01
869,02	-6,1849E-02
869,34	-9,3483E-02
869,65	-1,7134E-01
869,96	-4,0620E-01
870,27	-4,2296E-01
870,58	-4,7697E-02
870,89	-1,1153E-01
871,20	8,0054E-02
871,52	-2,2265E-01
871,83	-3,1893E-01
872,14	1,1259E-01
872,45	-5,8516E-01
872,76	1,2896E-01
873,07	1,9583E-01
873,38	-2,1080E-01
873,69	6,5107E-02
874,00	-2,8072E-01
874,31	-4,8501E-01
874,62	-1,6734E-01
874,94	-5,0560E-02
875,25	-5,0275E-02
875,56	-1,6999E-02
875,87	-9,1343E-01
876,18	-2,0326E-01
876,49	3,1149E-01
876,80	-2,2062E-01
877,11	-3,4221E-01
877,42	-7,1058E-01
877,73	-3,6424E-01
878,04	1,7459E-01
878,35	5,3367E-02
878,66	7,0239E-02
878,97	-1,9293E-01
879,28	-8,8728E-02
879,59	-3,7496E-01
879,90	-3,3794E-01
880,21	-4,8277E-01
880,52	-3,4167E-01
880,83	3,5790E-02
881,14	-5,8242E-01
881,45	2,6927E-01
881,76	-3,6389E-02
882,07	-2,3415E-01
882,37	-7,1916E-02
882,68	-4,6770E-01
882,99	1,4367E-01
883,30	-1,7992E-01
883,61	-4,1453E-01
883,92	3,2558E-01
884,23	-2,8667E-01
884,54	-1,9800E-01
884,85	-5,4108E-02
885,16	-4,5637E-01
885,47	9,0560E-02
885,77	-6,8861E-01
886,08	-2,4016E-01
886,39	-4,6265E-01
886,70	-1,0826E-01
887,01	-1,1015E-01
887,32	-3,4206E-01
887,63	-3,2746E-01
887,93	-1,6037E-01
888,24	-3,9643E-01
888,55	2,5511E-01
888,86	-1,8194E-01
889,17	2,0085E-01
889,47	5,0310E-01
889,78	4,7078E-01
890,09	9,0440E-02
890,40	6,8538E-01
890,71	-2,3465E-01
891,01	5,8604E-01
891,32	-7,2990E-02
891,63	1,4544E-01
891,94	-3,8164E-01
892,25	-3,3011E-01
892,55	-2,0166E-01
892,86	-1,8072E-01
893,17	-4,1578E-01
893,48	-6,0655E-01
893,78	-6,8820E-01
894,09	3,2697E-01
894,40	7,2871E-02
894,70	-8,1557E-01
895,01	1,8288E-02
895,32	3,6195E-01
895,63	1,2758E-01
895,93	-3,1178E-01
896,24	-5,3173E-01
896,55	-1,9886E-01
896,85	-1,6652E-01
897,16	-3,9735E-01
897,47	-3,6810E-01
897,77	-1,4800E-01
898,08	-2,0013E-01
898,39	5,8954E-01
898,69	5,4425E-01
899,00	-2,7798E-01
899,31	-3,1049E-01
899,61	-5,3182E-01
899,92	-1,4883E-01
900,23	-7,5562E-02
900,53	-2,6593E-01
900,84	1,6894E-01
901,14	-7,5174E-02
901,45	-4,7438E-01
901,76	-7,5164E-02
902,06	-5,7359E-02
902,37	6,6777E-01
902,67	-1,6942E-01
902,98	-4,1767E-01
903,29	-7,5674E-01
903,59	-2,3327E-01
903,90	-3,6924E-01
904,20	-2,1486E-01
904,51	-4,2911E-01
904,81	-3,9317E-02
905,12	-3,1264E-01
905,42	5,8793E-02
905,73	-1,5672E-01
906,03	5,3443E-01
906,34	9,8455E-02
906,64	3,3851E-01
906,95	-3,8395E-01
907,25	1,5872E-01
907,56	-1,2446E00
907,86	1,2110E-01
908,17	-3,0129E-01
908,47	-1,1160E00
908,78	-3,6484E-01
909,08	-8,0676E-01
909,39	-2,0284E-01
909,69	-2,3045E-01
910,00	-1,9131E-01
910,30	1,8809E-01
910,61	1,7237E-01
910,91	2,0975E-01
911,21	-1,2869E-01
911,52	-3,8979E-01
911,82	8,1678E-01
912,13	2,8274E-01
912,43	1,1420E00
912,74	4,4105E-02
913,04	4,8528E-01
913,34	-4,4515E-02
913,65	1,3375E-01
913,95	4,4924E-02
914,25	-3,7662E-01
914,56	6,8020E-02
914,86	-1,1462E-01
915,17	-2,5394E-01
915,47	1,3987E-01
915,77	6,9020E-02
916,08	-1,1463E-01
916,38	-3,2691E-01
916,68	-2,7942E-01
916,99	-6,4341E-01
917,29	-6,8595E-01
917,59	-2,1318E-01
917,90	2,3912E-02
918,20	-6,5494E-01
918,50	9,2555E-01
918,80	-3,8815E-01
919,11	-3,1125E-01
919,41	-3,8906E-01
919,71	-1,9767E-01
920,02	7,3284E-01
920,32	-1,9570E-01
920,62	4,5116E-01
920,92	3,5054E-01
921,23	8,3421E-01
921,53	2,2780E-01
921,83	5,0835E-01
922,13	-7,5561E-01
922,44	-5,9458E-01
922,74	-1,0767E00
923,04	-1,5961E-01
923,34	-3,9103E-01
923,64	-2,3402E-01
923,95	-2,6130E-02
924,25	-8,0224E-02
924,55	4,3107E-01
924,85	1,6378E-01
925,15	-5,0928E-01
925,46	-2,3952E-01
925,76	1,3878E-01
926,06	3,3029E-01
926,36	-3,3377E-01
926,66	1,9150E-01
926,96	-9,8293E-01
927,26	4,5083E-01
927,57	-8,4153E-02
927,87	-1,9771E-01
928,17	-5,4306E-01
928,47	4,0590E-01
928,77	-1,1796E00
929,07	1,5860E00
929,37	-1,1506E-01
929,67	6,7347E-01
929,98	2,6735E-01
930,28	-7,5270E-01
930,58	6,0579E-02
930,88	-3,0335E-02
931,18	2,1595E-01
931,48	-3,3389E-01
931,78	-5,8478E-01
932,08	-5,2603E-01
932,38	-5,9639E-01
932,68	9,4221E-02
932,98	-7,9272E-01
933,28	7,0064E-01
933,58	-4,1948E-01
933,88	-6,4721E-02
934,18	7,8068E-01
934,48	-2,6502E-01
934,78	2,9680E-01
935,08	0,0000E00
935,38	-1,0004E-01
935,68	8,0297E-01
935,98	-1,0328E-01
936,28	-3,3997E-01
936,58	2,4263E-01
936,88	-6,0595E-01
937,18	-7,3287E-01
937,48	-5,9348E-01
937,78	-1,6260E00
938,08	-1,4162E-01
938,38	-7,0049E-01
938,68	-4,6914E-01
938,98	-1,7827E-01
939,28	6,5082E-01
939,57	-1,0551E00
939,87	-4,0456E-01
940,17	-1,5415E00
940,47	1,8568E-01
940,77	-5,2529E-01
941,07	8,8389E-01
941,37	-6,0880E-01
941,67	-9,2203E-01
941,97	-6,1790E-01
942,26	-1,5913E00
942,56	-6,5734E-01
942,86	-3,8958E-01
943,16	-7,9261E-01
943,46	4,0055E-02
943,76	-2,9621E00
944,06	-2,0344E-01
944,35	-1,3128E00
944,65	-8,1534E-02
944,95	-1,2225E-01
945,25	-1,5378E00
945,55	0,0000E00
945,84	-6,2822E-01
946,14	-8,4005E-01
946,44	-1,3678E00
946,74	-1,3965E00
947,03	-2,0829E00
947,33	4,3135E-01
947,63	-7,8789E-01
947,93	2,6368E-01
948,23	-1,0331E00
948,52	-2,1657E00
948,82	6,6379E-01
949,12	-6,3164E-01
949,41	7,0924E-01
949,71	3,1824E-01
950,01	6,0284E-01
950,31	-7,2469E-01
950,60	-1,2129E00
950,90	-3,7475E-01
951,20	-5,1965E-01
951,49	8,0045E-01
951,79	1,4817E00
952,09	-1,0545E00
952,38	-6,7191E-01
952,68	-1,4012E00
952,98	4,9906E-01
953,27	5,0526E-02
953,57	-8,7633E-01
953,87	2,4838E-01
954,16	-5,0061E-02
954,46	-1,6965E00
954,76	-1,8264E00
955,05	2,5663E-01
955,35	5,7142E-01
955,64	-5,2505E-02
955,94	3,1067E-01
956,24	-7,5298E-01
956,53	2,3305E00
956,83	-1,0788E-01
957,12	-2,6267E-01
957,42	5,5648E-02
957,72	-5,4465E-01
958,01	3,8623E-01
958,31	-1,7090E00
958,60	-1,6596E00
958,90	-1,7153E00
959,19	-6,2105E-01
959,49	-4,5600E-01
959,78	-4,6473E-01
960,08	-8,6831E-01
960,37	-2,4606E00
960,67	-3,1002E00
960,96	-2,1722E00
961,26	2,0758E00
961,55	-2,5643E00
961,85	6,0421E-02
962,14	9,7787E-01
962,44	6,1912E-02
962,73	4,3457E-01
963,03	-3,1371E00
963,32	6,7640E-01
963,62	1,3925E00
963,91	-7,6031E-01
964,21	6,3513E-02
964,50	1,2947E-01
964,80	-6,5125E-01
965,09	1,9664E-01
965,38	-7,9049E-01
965,68	-4,0206E-01
965,97	1,6046E00
966,27	6,9239E-02
966,56	2,0707E-01
966,85	-2,3796E00
967,15	-2,7511E-01
967,44	1,5727E00
967,74	-7,7626E-01
968,03	-1,2870E00
968,32	7,8731E-01
968,62	-1,5099E00
968,91	9,3242E-01
969,20	-4,9754E-01
969,50	-7,1932E-02
969,79	-2,7999E00
970,08	-2,8813E00
970,38	-4,5489E-01
970,67	-1,5763E00
970,96	-6,6998E-01
971,26	-1,8568E00
971,55	7,6391E-01
971,84	-1,2505E00
972,13	-2,8875E00
972,43	7,8859E-01
972,72	4,8975E-01
973,01	-1,0389E00
973,31	-8,2901E-01
973,60	5,6403E-01
973,89	-2,5584E00
974,18	-1,7688E00
974,48	1,0643E00
974,77	-7,6706E-01
975,06	5,9264E-01
975,35	-2,7371E00
975,64	-1,6574E00
975,94	-6,0284E-01
976,23	2,6806E-01
976,52	-7,9556E-01
976,81	8,9000E-02
977,10	-4,5705E-01
977,40	-1,5572E00
977,69	-3,6256E-01
977,98	2,7898E00
978,27	0,0000E00
978,56	-8,7000E-01
978,86	4,6983E-01
979,15	-1,8418E00
979,44	-1,9633E00
979,73	-2,1409E00
980,02	0,0000E00
980,31	-3,1008E00
980,60	-1,8498E00
980,89	3,0731E-01
981,19	-1,4273E00
981,48	-2,9567E00
981,77	-3,4612E00
982,06	0,0000E00
982,35	-1,4609E00
982,64	6,2475E-01
982,93	-3,6698E00
983,22	-1,6340E00
983,51	9,6655E-01
983,80	-6,6319E-01
984,09	-9,9077E-01
984,38	7,7242E-01
984,67	-5,4604E-01
984,96	-5,2375E00
985,25	-4,5381E00
985,55	2,6695E00
985,84	-1,9230E00
986,13	-6,3499E00
986,42	1,1839E-01
986,71	-2,9727E00
987,00	1,2218E-01
987,29	-9,3181E00
987,58	9,0192E-01
987,86	2,2420E00
988,15	-1,8562E00
988,44	-1,0340E00
988,73	-4,9213E00
989,02	-4,8328E00
989,31	3,7476E00
989,60	5,2002E-01
989,89	1,9862E00
990,18	4,9570E00
990,47	-2,3831E00
990,76	-6,6974E00
991,05	8,3138E-01
991,34	-6,7147E-01
991,63	1,1310E00
991,92	-1,6609E00
992,20	-1,1160E00
992,49	-3,2197E00
992,78	-5,2203E00
993,07	2,0749E00
993,36	2,0682E00
993,65	-1,3479E00
993,94	-1,9217E00
994,22	-4,5761E-01
994,51	-2,1675E00
994,80	-3,1019E00
995,09	-9,6309E-01
995,38	-4,4977E00
995,67	-6,1504E00
995,95	1,5935E00
996,24	-2,5386E00
996,53	3,6349E00
996,82	1,8451E00
997,11	-4,1835E00
997,39	9,7810E-01
997,68	-1,8824E00
997,97	1,9899E00
998,26	2,7851E00
998,54	1,0650E00
998,83	1,5811E00
999,12	-2,1323E00
999,41	4,9607E00
999,69	-7,1567E00
999,98	-4,7710E00
1000,27	5,1805E00
1000,56	-1,4804E01
1000,84	-4,1290E00
1001,13	-3,8402E00
1001,42	-2,9480E00
1001,70	1,1345E00
1001,99	-1,3808E01
1002,28	9,9429E-01
1002,56	-3,6217E00
1002,85	4,8866E00
1003,14	-1,4683E01
1003,42	-2,4460E00
1003,71	-8,2088E-01
1004,00	-4,9330E00
1004,28	2,6441E00
1004,57	-3,1389E00
1004,86	2,0568E-01
1005,14	5,3386E00
1005,43	-8,2343E00
1005,72	-3,4811E00
1006,00	7,1761E-01
1006,29	2,4375E00
1006,57	-3,2059E00
1006,86	-5,2390E00
1007,15	-7,3788E00
1007,43	-1,5237E00
1007,72	1,7696E00
1008,00	-1,2393E01
1008,29	5,5178E00
1008,57	-9,2257E00
1008,86	-1,6755E00
1009,14	5,4805E00
1009,43	-5,0836E00
1009,71	-8,5094E00
1010,00	8,2453E-01
1010,29	7,6782E00
1010,57	2,8015E00
1010,86	2,4275E00
1011,14	2,8123E-01
1011,43	2,7596E-01
1011,71	7,8097E00
1011,99	-2,9537E00
1012,28	-2,9640E-01
1012,56	-1,4381E00
1012,85	-1,1225E01
1013,13	1,2255E00
1013,42	1,5539E00
1013,70	-9,3710E00
1013,99	3,5090E00
1014,27	2,8321E00
1014,56	3,2710E00
1014,84	-2,8528E00
1015,12	-1,6149E01
1015,41	-7,7123E00
1015,69	5,0561E00
1015,98	-1,4280E01
1016,26	6,1246E00
1016,54	-3,4865E-01
1016,83	-3,5003E-01
1017,11	3,0099E00
1017,39	-6,9835E-01
1017,68	3,0292E00
1017,96	-2,7989E00
1018,25	-5,9764E00
1018,53	1,9326E00
1018,81	3,4217E00
1019,10	5,3154E00
1019,38	-3,9308E-01
1019,66	-2,2467E00
1019,94	1,3587E01
1020,23	5,5542E00
1020,51	4,4265E00
1020,79	-9,1804E00
1021,08	-9,3943E00
1021,36	-1,1943E01
1021,64	-5,6309E00
1021,93	-1,2370E01
1022,21	-1,3289E01
1022,49	-1,3289E01
>>>>>End Processed Spectral Data<<<<<
