SpectraSuite Data File
++++++++++++++++++++++++++++++++++++
Date: Fri Jul 23 12:17:46 EEST 2021
User: mkilpela
Dark Spectrum Present: Yes
Reference Spectrum Present: No
Number of Sampled Component Spectra: 1
Spectrometers: JAZA2845
Integration Time (usec): 9098 (JAZA2845)
Spectra Averaged: 1 (JAZA2845)
Boxcar Smoothing: 0 (JAZA2845)
Correct for Electrical Dark: No (JAZA2845)
Strobe/Lamp Enabled: No (JAZA2845)
Correct for Detector Non-linearity: No (JAZA2845)
Correct for Stray Light: No (JAZA2845)
Number of Pixels in Processed Spectrum: 2048
>>>>>Begin Processed Spectral Data<<<<<
340,21	-0,0000E00
340,58	-0,0000E00
340,96	-0,0000E00
341,33	0,0000E00
341,70	-0,0000E00
342,07	-0,0000E00
342,45	-0,0000E00
342,82	-0,0000E00
343,19	-0,0000E00
343,57	-0,0000E00
343,94	-0,0000E00
344,31	-0,0000E00
344,68	-0,0000E00
345,06	-0,0000E00
345,43	-0,0000E00
345,80	-0,0000E00
346,18	-0,0000E00
346,55	-0,0000E00
346,92	0,0000E00
347,29	-0,0000E00
347,67	-0,0000E00
348,04	-0,0000E00
348,41	-0,0000E00
348,78	-0,0000E00
349,16	0,0000E00
349,53	-0,0000E00
349,90	-0,0000E00
350,27	1,0445E-02
350,64	-2,8049E-01
351,02	-1,8465E00
351,39	1,2530E-02
351,76	-1,1878E-01
352,13	-4,5228E-01
352,51	-6,0639E-02
352,88	-6,7775E-02
353,25	-7,6255E-01
353,62	2,7406E-02
353,99	-3,6932E-01
354,37	-5,7354E-02
354,74	-3,2900E-01
355,11	-2,2449E00
355,48	-1,2416E00
355,85	-3,9046E-01
356,23	-2,1641E-01
356,60	4,5423E00
356,97	-8,8776E-01
357,34	-1,3315E00
357,71	-1,9146E-02
358,08	-1,6479E-01
358,46	-5,5979E00
358,83	1,2263E-02
359,20	6,1419E-02
359,57	-3,5713E-01
359,94	-7,8665E-02
360,31	-2,9280E-02
360,69	-3,0621E-01
361,06	1,5076E-01
361,43	-4,2649E-01
361,80	-4,4198E-01
362,17	-4,3198E-01
362,54	-4,1250E-01
362,91	-5,9408E-01
363,29	-1,7390E-01
363,66	-2,0520E-01
364,03	-9,4490E-01
364,40	-8,2977E-01
364,77	-4,8862E-01
365,14	-5,7345E-01
365,51	-1,7518E-01
365,88	-3,2453E-01
366,26	-1,9133E00
366,63	-0,0000E00
367,00	-8,5341E-02
367,37	-4,9646E-01
367,74	-1,7332E-01
368,11	-2,5603E-01
368,48	-4,9505E-01
368,85	-1,8404E-01
369,22	7,6237E-03
369,59	-6,2951E-01
369,97	-1,5497E00
370,34	-2,3547E-01
370,71	-2,6234E-01
371,08	-5,3377E-01
371,45	-6,6005E-02
371,82	-4,0434E-01
372,19	-3,5939E-01
372,56	-1,7223E-01
372,93	-3,6700E-01
373,30	-3,3374E-01
373,67	-4,1428E-01
374,04	-2,6993E-01
374,41	-2,5493E-01
374,78	-3,7237E-01
375,15	-3,7556E-01
375,52	-5,5493E-01
375,89	-1,3374E-01
376,26	-4,9540E-01
376,63	-9,5506E-01
377,00	-8,6827E-01
377,38	-5,0924E-01
377,75	-2,1471E-01
378,12	-4,9963E-01
378,49	-5,1701E-01
378,86	-1,8244E-01
379,23	-5,9161E-01
379,60	-1,2278E-01
379,97	-5,0475E-01
380,34	0,0000E00
380,71	-2,5854E-01
381,08	-1,3334E-01
381,45	-2,7545E-01
381,82	-2,0178E-01
382,19	-6,5257E-01
382,55	-7,8523E-01
382,92	-7,8505E-01
383,29	-3,8495E-01
383,66	-6,5296E-01
384,03	-6,3373E-01
384,40	4,3879E-02
384,77	5,9107E-02
385,14	1,1152E-01
385,51	4,2549E-02
385,88	1,1209E-01
386,25	1,4893E-02
386,62	-4,7193E-01
386,99	-1,9668E-01
387,36	-2,1248E-01
387,73	-4,4018E-01
388,10	-4,6132E-01
388,47	-7,6143E-02
388,84	-2,4328E-02
389,21	-2,7695E-01
389,58	-5,5592E-01
389,94	-2,2921E-01
390,31	1,7925E-01
390,68	-2,2144E-01
391,05	-4,4998E-01
391,42	-2,6698E-01
391,79	-2,8566E-01
392,16	-5,3090E-01
392,53	-4,2510E-01
392,90	-7,5563E-02
393,27	-1,6770E-01
393,63	-2,1576E-01
394,00	-1,3163E-01
394,37	-1,4602E-01
394,74	-2,5964E-01
395,11	-3,1029E-01
395,48	-5,4804E-01
395,85	-1,3057E-01
396,22	-3,4479E-01
396,58	-4,5466E-02
396,95	-5,8714E-02
397,32	-1,9650E-01
397,69	-1,8772E-01
398,06	-1,6006E-01
398,43	-6,9022E-02
398,80	-3,7169E-01
399,16	-9,6268E-02
399,53	-1,8941E-01
399,90	-3,6525E-01
400,27	-1,8234E-01
400,64	-3,3761E-01
401,01	-1,5655E-01
401,37	1,9769E-02
401,74	-5,3638E-02
402,11	-1,2972E-01
402,48	-9,2844E-02
402,85	1,1278E-01
403,22	8,0757E-02
403,58	5,7405E-02
403,95	-4,6955E-01
404,32	-2,2154E-01
404,69	-2,1630E-01
405,06	-1,2225E-01
405,42	-7,1630E-03
405,79	9,8184E-02
406,16	-3,0832E-01
406,53	-1,0403E-01
406,89	3,3317E-02
407,26	-6,7796E-02
407,63	-1,8243E-01
408,00	-3,2434E-01
408,37	-4,8677E-02
408,73	-2,5615E-01
409,10	-2,0605E-01
409,47	-1,1579E-01
409,84	-2,0099E-01
410,20	-3,3750E-01
410,57	1,3199E-02
410,94	-2,1623E-01
411,31	-1,3096E-01
411,67	7,4015E-02
412,04	-2,4778E-02
412,41	1,8700E-01
412,77	3,1100E-02
413,14	3,9680E-02
413,51	2,0333E-01
413,88	2,6144E-01
414,24	3,1255E-01
414,61	3,0620E-01
414,98	3,2305E-01
415,34	2,4020E-01
415,71	2,7583E-01
416,08	3,7572E-01
416,45	5,2385E-01
416,81	2,6415E-01
417,18	4,9536E-01
417,55	4,8806E-01
417,91	6,1201E-01
418,28	5,6089E-01
418,65	5,6233E-01
419,01	5,5135E-01
419,38	8,9406E-01
419,75	1,0626E00
420,11	9,6643E-01
420,48	1,1019E00
420,85	1,4772E00
421,21	1,3844E00
421,58	1,3316E00
421,95	1,5092E00
422,31	1,6828E00
422,68	1,9620E00
423,05	2,2255E00
423,41	2,2087E00
423,78	2,4666E00
424,15	2,8674E00
424,51	3,1842E00
424,88	3,2574E00
425,24	3,3317E00
425,61	3,5626E00
425,98	3,9878E00
426,34	3,9345E00
426,71	4,5001E00
427,07	4,5041E00
427,44	5,0507E00
427,81	5,2098E00
428,17	5,5832E00
428,54	5,7409E00
428,90	6,5216E00
429,27	7,0224E00
429,64	7,1323E00
430,00	7,9567E00
430,37	8,4019E00
430,73	8,9201E00
431,10	9,9211E00
431,46	1,1022E01
431,83	1,2283E01
432,20	1,2974E01
432,56	1,4356E01
432,93	1,5812E01
433,29	1,5755E01
433,66	1,7424E01
434,02	1,8668E01
434,39	2,1168E01
434,75	2,1594E01
435,12	2,4544E01
435,49	2,5850E01
435,85	2,5999E01
436,22	2,9184E01
436,58	3,1706E01
436,95	3,4621E01
437,31	3,5190E01
437,68	3,8924E01
438,04	4,3003E01
438,41	4,3906E01
438,77	4,5781E01
439,14	4,9920E01
439,50	5,0930E01
439,87	5,3340E01
440,23	5,4291E01
440,60	5,7511E01
440,96	6,0584E01
441,33	6,4798E01
441,69	6,5315E01
442,06	6,7561E01
442,42	7,0803E01
442,78	7,4973E01
443,15	7,7639E01
443,51	8,3374E01
443,88	8,1442E01
444,24	8,1868E01
444,61	8,4066E01
444,97	8,9437E01
445,34	9,2289E01
445,70	9,3764E01
446,07	9,5205E01
446,43	9,7999E01
446,79	9,7227E01
447,16	9,7277E01
447,52	9,8289E01
447,89	1,0018E02
448,25	1,0089E02
448,62	1,0457E02
448,98	1,0182E02
449,34	1,0121E02
449,71	1,0425E02
450,07	1,0590E02
450,44	1,0590E02
450,80	1,0243E02
451,16	1,0150E02
451,53	9,8911E01
451,89	9,8103E01
452,25	9,7926E01
452,62	9,5520E01
452,98	9,4879E01
453,35	9,6478E01
453,71	9,1566E01
454,07	8,9208E01
454,44	8,3959E01
454,80	8,5561E01
455,16	8,2800E01
455,53	7,8953E01
455,89	7,8466E01
456,25	7,5289E01
456,62	7,2221E01
456,98	6,9292E01
457,34	6,4699E01
457,71	6,3554E01
458,07	5,9199E01
458,43	5,8156E01
458,80	5,4999E01
459,16	5,2846E01
459,52	4,9256E01
459,89	4,7275E01
460,25	4,4786E01
460,61	4,2323E01
460,98	3,9378E01
461,34	3,9708E01
461,70	3,7200E01
462,07	3,5902E01
462,43	3,3237E01
462,79	3,2645E01
463,15	3,1301E01
463,52	3,0091E01
463,88	2,9207E01
464,24	2,6879E01
464,61	2,5748E01
464,97	2,5547E01
465,33	2,4423E01
465,69	2,2348E01
466,06	2,1689E01
466,42	2,1012E01
466,78	1,9552E01
467,14	1,9080E01
467,51	1,8168E01
467,87	1,7391E01
468,23	1,6524E01
468,59	1,6414E01
468,95	1,5403E01
469,32	1,4642E01
469,68	1,3966E01
470,04	1,3155E01
470,40	1,2461E01
470,77	1,2603E01
471,13	1,1152E01
471,49	1,0916E01
471,85	1,0496E01
472,21	1,0020E01
472,58	9,6755E00
472,94	8,8558E00
473,30	8,7745E00
473,66	8,3158E00
474,02	7,5346E00
474,39	7,0552E00
474,75	6,9770E00
475,11	6,4947E00
475,47	6,0343E00
475,83	5,8215E00
476,19	5,5675E00
476,56	5,2739E00
476,92	4,8890E00
477,28	4,6934E00
477,64	4,5407E00
478,00	4,2033E00
478,36	3,8356E00
478,72	3,6632E00
479,09	3,5459E00
479,45	3,1739E00
479,81	3,2019E00
480,17	3,0450E00
480,53	2,8542E00
480,89	2,7662E00
481,25	2,6880E00
481,61	2,4742E00
481,97	2,5610E00
482,34	2,3014E00
482,70	2,2635E00
483,06	2,1128E00
483,42	2,2342E00
483,78	1,9264E00
484,14	1,9224E00
484,50	1,8258E00
484,86	1,6366E00
485,22	1,5612E00
485,58	1,5719E00
485,94	1,5313E00
486,31	1,4541E00
486,67	1,3318E00
487,03	1,3721E00
487,39	1,1981E00
487,75	1,2669E00
488,11	1,1564E00
488,47	1,0437E00
488,83	1,0446E00
489,19	8,6934E-01
489,55	8,9537E-01
489,91	7,8801E-01
490,27	7,6238E-01
490,63	7,6073E-01
490,99	5,5215E-01
491,35	5,7330E-01
491,71	4,7777E-01
492,07	5,0871E-01
492,43	5,1557E-01
492,79	4,1325E-01
493,15	4,1783E-01
493,51	4,9835E-01
493,87	4,1460E-01
494,23	3,5829E-01
494,59	3,0891E-01
494,95	2,4117E-01
495,31	3,0791E-01
495,67	1,9395E-01
496,03	2,2181E-01
496,39	1,9297E-01
496,75	2,0014E-01
497,11	2,1119E-01
497,47	1,3304E-01
497,83	1,3021E-01
498,19	6,6454E-02
498,55	9,0283E-02
498,91	5,5883E-02
499,27	6,6590E-02
499,63	8,3186E-02
499,98	-3,2809E-02
500,34	5,6675E-02
500,70	7,1354E-02
501,06	4,2425E-02
501,42	0,0000E00
501,78	-3,3733E-02
502,14	-2,1984E-02
502,50	5,7681E-02
502,86	5,9165E-02
503,22	3,9461E-02
503,58	5,6032E-02
503,94	0,0000E00
504,29	-2,5980E-02
504,65	-2,2734E-02
505,01	2,1206E-02
505,37	1,6295E-03
505,73	-1,7552E-02
506,09	-1,7693E-02
506,45	6,4420E-03
506,81	-4,8249E-03
507,16	-3,3885E-02
507,52	-1,5956E-03
507,88	-4,7688E-02
508,24	-6,5828E-02
508,60	-2,4089E-02
508,96	-8,0714E-02
509,32	-9,4880E-03
509,67	-1,7672E-02
510,03	-2,8872E-02
510,39	-4,7452E-02
510,75	-3,8156E-02
511,11	-9,4704E-03
511,47	-6,5479E-02
511,82	-1,4096E-02
512,18	-6,4906E-02
512,54	-8,6146E-02
512,90	-3,7065E-02
513,26	1,5910E-03
513,61	-4,6666E-02
513,97	-1,0899E-02
514,33	-1,7489E-02
514,69	-4,7810E-02
515,05	-1,7444E-02
515,40	-2,0550E-02
515,76	-5,8126E-02
516,12	-4,2618E-02
516,48	-5,2474E-02
516,83	-2,7158E-02
517,19	-6,9725E-02
517,55	-4,9794E-02
517,91	-4,6866E-02
518,26	-3,7952E-02
518,62	-5,8505E-02
518,98	-3,1938E-02
519,34	-4,3100E-02
519,69	-9,4528E-03
520,05	-2,3813E-02
520,41	-1,7634E-02
520,77	-2,3742E-02
521,12	6,4074E-03
521,48	-2,2153E-02
521,84	-3,8008E-02
522,19	-9,1798E-02
522,55	-3,1687E-03
522,91	-5,8593E-02
523,27	-3,0082E-02
523,62	-2,7111E-02
523,98	-3,1886E-02
524,34	-3,1567E-02
524,69	-1,6128E-02
525,05	-5,3196E-02
525,41	-4,1598E-02
525,76	-3,1424E-02
526,12	-2,6799E-02
526,48	-4,9284E-02
526,83	-5,0552E-02
527,19	-1,5602E-03
527,55	1,2692E-02
527,90	-5,2169E-02
528,26	-8,9658E-02
528,62	-4,4194E-02
528,97	-9,7330E-02
529,33	-3,2626E-02
529,69	-3,9291E-02
530,04	0,0000E00
530,40	1,4067E-02
530,76	-4,0485E-02
531,11	-7,7331E-03
531,47	-4,1287E-02
531,82	-2,3247E-02
532,18	-8,8627E-02
532,54	-4,6928E-03
532,89	7,7652E-03
533,25	-7,5405E-02
533,60	-3,6790E-02
533,96	-3,2202E-02
534,32	-5,9415E-02
534,67	-1,1297E-01
535,03	-7,5254E-02
535,38	-2,7801E-02
535,74	-4,6002E-03
536,10	7,7346E-03
536,45	-7,6424E-02
536,81	-6,5747E-02
537,16	-7,6827E-03
537,52	-3,2014E-02
537,87	-3,0666E-02
538,23	-7,1127E-02
538,58	-4,9192E-02
538,94	2,2877E-02
539,30	4,2366E-02
539,65	-6,4965E-02
540,01	1,3337E-02
540,36	-3,0009E-02
540,72	-5,0827E-02
541,07	-9,0822E-02
541,43	-3,1199E-02
541,78	-3,7108E-02
542,14	-8,4640E-02
542,49	-2,6402E-02
542,85	-4,4475E-02
543,20	-9,2557E-02
543,56	-4,4730E-02
543,91	-8,0909E-02
544,27	-5,8570E-02
544,62	4,3791E-03
544,98	-2,8011E-02
545,33	-1,7371E-02
545,69	-5,0758E-02
546,04	-5,3714E-02
546,40	-4,5392E-02
546,75	-3,1656E-02
547,10	-5,0636E-02
547,46	-4,4540E-02
547,81	-3,4914E-02
548,17	-6,0578E-02
548,52	-4,2833E-03
548,88	-3,8930E-02
549,23	-5,9042E-02
549,59	-3,3082E-02
549,94	-1,8698E-02
550,29	-7,7331E-02
550,65	-4,0014E-02
551,00	2,4276E-02
551,36	-4,7185E-02
551,71	5,6624E-03
552,06	-1,8540E-02
552,42	-3,7700E-02
552,77	-7,2661E-02
553,13	-3,1220E-02
553,48	-4,2657E-02
553,83	-7,1651E-03
554,19	-4,4532E-02
554,54	-2,2737E-02
554,90	0,0000E00
555,25	-7,6771E-02
555,60	-6,0023E-02
555,96	-1,8526E-02
556,31	-2,8252E-03
556,66	-9,1634E-02
557,02	-2,8641E-02
557,37	-6,3839E-02
557,72	-6,9700E-02
558,08	-4,4650E-02
558,43	-8,2573E-02
558,79	-8,6812E-02
559,14	-5,4782E-02
559,49	-4,8761E-02
559,85	-4,9999E-02
560,20	-3,3610E-02
560,55	-3,9165E-02
560,90	-5,7789E-03
561,26	-7,7895E-02
561,61	-1,9003E-02
561,96	-3,8140E-02
562,32	-6,5544E-02
562,67	-2,5306E-02
563,02	4,3681E-03
563,38	-4,8576E-02
563,73	-4,7537E-02
564,08	-7,4020E-03
564,43	-2,3785E-02
564,79	-7,7535E-02
565,14	-6,1478E-02
565,49	-5,6820E-02
565,84	4,4711E-03
566,20	-3,4258E-02
566,55	-1,9717E-02
566,90	-6,0349E-02
567,25	-3,8091E-02
567,61	-3,6352E-02
567,96	-7,4676E-02
568,31	-1,4946E-01
568,66	-6,3480E-02
569,02	-7,7768E-02
569,37	-6,4661E-02
569,72	-6,9673E-02
570,07	-7,1874E-02
570,42	-2,0101E-02
570,78	-6,8018E-02
571,13	-1,3800E-02
571,48	-1,5624E-02
571,83	-6,2554E-03
572,18	-2,9689E-02
572,54	-4,2020E-02
572,89	-2,5290E-02
573,24	-4,9265E-02
573,59	-4,3657E-02
573,94	-7,1421E-02
574,30	-9,7470E-02
574,65	-3,7382E-02
575,00	-9,3236E-02
575,35	-2,9864E-02
575,70	-3,9344E-02
576,05	-1,0177E-01
576,40	-1,7456E-02
576,76	-7,8703E-03
577,11	-4,8674E-02
577,46	-1,0131E-01
577,81	1,5761E-03
578,16	-4,4104E-02
578,51	-8,7038E-02
578,86	-7,9768E-02
579,21	-9,5374E-02
579,57	-4,1291E-02
579,92	-5,3469E-02
580,27	-6,2569E-02
580,62	-9,7482E-02
580,97	-6,1484E-02
581,32	-4,7017E-02
581,67	-2,9918E-02
582,02	-7,0789E-02
582,37	-4,7211E-03
582,72	-7,1666E-02
583,08	-3,7823E-02
583,43	-1,0621E-01
583,78	-1,9299E-02
584,13	-8,7835E-02
584,48	-3,1616E-02
584,83	9,5369E-03
585,18	-3,0524E-02
585,53	-8,3224E-02
585,88	-1,1241E-01
586,23	-1,4362E-02
586,58	-7,1785E-02
586,93	-6,3381E-02
587,28	-1,0761E-01
587,63	-2,0616E-02
587,98	-4,8020E-02
588,33	-5,5737E-02
588,68	-9,2531E-02
589,03	-5,4890E-02
589,38	-4,9181E-02
589,73	-4,1263E-02
590,08	-5,9578E-02
590,43	-3,8535E-02
590,78	-4,1396E-02
591,13	-6,3160E-03
591,48	-5,1338E-02
591,83	-4,1317E-02
592,18	1,5969E-03
592,53	2,3981E-02
592,88	-2,2448E-02
593,23	-5,2571E-02
593,58	-8,6892E-02
593,93	-8,7386E-02
594,28	-3,8503E-02
594,63	-1,0001E-01
594,98	-1,2957E-01
595,33	-6,3989E-03
595,68	-1,0131E-01
596,02	-4,1853E-02
596,37	-1,6042E-02
596,72	-5,1173E-02
597,07	-6,7630E-02
597,42	-1,0030E-01
597,77	-4,8331E-03
598,12	-5,5148E-02
598,47	-2,2734E-02
598,82	-4,7135E-02
599,17	-4,3721E-02
599,52	-3,7709E-02
599,86	-1,0832E-01
600,21	-4,0942E-02
600,56	-4,2408E-02
600,91	-1,4702E-02
601,26	-2,7668E-02
601,61	-5,9228E-02
601,96	-5,3833E-02
602,30	-9,8878E-02
602,65	-1,1584E-01
603,00	-2,9845E-02
603,35	-1,1820E-01
603,70	-5,2968E-02
604,05	-5,9937E-02
604,40	-6,3580E-02
604,74	-4,8796E-02
605,09	-5,8008E-02
605,44	-1,1545E-01
605,79	-3,3522E-02
606,14	-5,2136E-02
606,48	-9,0998E-02
606,83	-4,5858E-02
607,18	-4,2399E-02
607,53	-3,7546E-02
607,88	-8,4999E-03
608,22	-4,5997E-02
608,57	-4,4523E-02
608,92	-5,8461E-02
609,27	-8,4457E-02
609,62	-1,9020E-02
609,96	-6,6415E-02
610,31	-7,9872E-02
610,66	-7,3783E-02
611,01	-1,0805E-01
611,35	-1,0516E-02
611,70	-1,0355E-01
612,05	-9,5596E-02
612,40	-7,7437E-02
612,74	-5,3453E-03
613,09	-5,3057E-02
613,44	-3,0237E-02
613,79	-6,2571E-02
614,13	-1,1406E-01
614,48	-4,1049E-02
614,83	-5,8031E-02
615,17	-1,0671E-01
615,52	-5,1048E-02
615,87	-1,0202E-01
616,22	-1,0349E-01
616,56	-1,1557E-01
616,91	-4,4091E-02
617,26	-3,3186E-02
617,60	-9,1198E-03
617,95	-1,8299E-02
618,30	-3,3289E-02
618,64	-5,0065E-02
618,99	-2,4016E-02
619,34	-2,7996E-02
619,68	-5,0003E-02
620,03	-6,5194E-02
620,38	-8,4137E-02
620,72	-1,0438E-01
621,07	-5,2582E-02
621,42	-1,4334E-01
621,76	-5,8067E-02
622,11	-3,4195E-02
622,45	-3,0266E-02
622,80	1,9099E-02
623,15	-3,0474E-02
623,49	-6,6649E-02
623,84	-1,9202E-03
624,18	-9,6137E-03
624,53	-6,1336E-02
624,88	-5,1739E-02
625,22	-8,6960E-02
625,57	-2,3062E-02
625,91	-3,4896E-02
626,26	-4,6621E-02
626,61	-8,3149E-02
626,95	-3,8832E-03
627,30	-3,6840E-02
627,64	-3,8731E-02
627,99	-1,0373E-01
628,33	-1,4464E-01
628,68	-8,8121E-02
629,03	3,9337E-03
629,37	-6,2594E-02
629,72	-7,9226E-02
630,06	-1,0655E-01
630,41	-9,8739E-02
630,75	0,0000E00
631,10	-9,3245E-02
631,44	-9,8102E-02
631,79	-5,1503E-02
632,13	-4,6031E-02
632,48	-6,3850E-02
632,82	-8,4468E-02
633,17	6,0473E-03
633,51	-9,4601E-02
633,86	-9,7511E-02
634,20	-4,8099E-02
634,55	-6,4710E-02
634,89	-1,1515E-01
635,24	-8,5343E-02
635,58	-1,7065E-01
635,93	-7,6901E-02
636,27	-5,7324E-02
636,62	-1,6216E-02
636,96	-1,8206E-02
637,30	-3,2730E-02
637,65	-1,2257E-02
637,99	-7,7916E-02
638,34	-6,9839E-02
638,68	-6,1565E-03
639,03	-2,8809E-02
639,37	-6,8074E-02
639,71	0,0000E00
640,06	-6,0042E-02
640,40	-5,5738E-02
640,75	-2,6961E-02
641,09	-8,3097E-02
641,44	-5,6189E-02
641,78	-8,2923E-02
642,12	-6,0736E-02
642,47	-2,7009E-02
642,81	-2,9072E-02
643,15	-8,8689E-02
643,50	-1,2336E-01
643,84	-2,1084E-02
644,19	-4,2083E-02
644,53	-6,1503E-02
644,87	-1,0370E-01
645,22	-5,0838E-02
645,56	-8,8787E-02
645,90	-8,0928E-02
646,25	-1,6454E-01
646,59	-7,4913E-02
646,93	-6,4529E-02
647,28	-7,7254E-02
647,62	-4,0607E-02
647,96	-2,1611E-02
648,31	-6,9161E-02
648,65	-4,9780E-02
648,99	-5,0369E-02
649,34	-6,9658E-02
649,68	-4,1140E-02
650,02	-7,1726E-02
650,36	-9,1842E-02
650,71	2,6271E-02
651,05	-1,0489E-01
651,39	-3,2816E-02
651,74	-6,9951E-02
652,08	-4,6052E-02
652,42	-4,3949E-02
652,76	-5,9956E-02
653,11	-7,0757E-02
653,45	-9,1377E-02
653,79	-6,2791E-02
654,13	-1,0874E-01
654,48	-3,1220E-02
654,82	-3,3572E-02
655,16	-6,7216E-02
655,50	-5,4145E-02
655,85	-3,1618E-02
656,19	-9,3207E-02
656,53	-1,1266E-02
656,87	-1,0503E-01
657,21	-8,1318E-02
657,56	-7,5288E-02
657,90	-9,7584E-02
658,24	-9,4147E-02
658,58	-4,5686E-02
658,92	-9,6294E-02
659,27	-4,5768E-02
659,61	-5,7443E-02
659,95	-1,3154E-01
660,29	-6,9182E-02
660,63	-5,5726E-02
660,97	-5,1256E-02
661,32	-1,5007E-01
661,66	-6,8066E-02
662,00	-7,0349E-02
662,34	-1,1316E-01
662,68	-9,8873E-02
663,02	4,6957E-03
663,37	-5,8818E-02
663,71	-6,4113E-02
664,05	-4,7364E-02
664,39	-1,1344E-01
664,73	-1,1989E-02
665,07	-6,2242E-02
665,41	-2,8920E-02
665,75	-7,2270E-03
666,09	-1,3437E-01
666,44	-5,8268E-02
666,78	-8,7186E-02
667,12	-2,9136E-02
667,46	4,3724E-02
667,80	-9,8246E-03
668,14	-1,3514E-01
668,48	-5,4039E-02
668,82	-1,8611E-01
669,16	-5,1948E-02
669,50	-1,2406E-01
669,84	-1,6759E-01
670,18	-6,2813E-02
670,52	-1,1547E-01
670,86	-1,2377E-01
671,20	-8,1594E-02
671,54	-5,0299E-02
671,88	-1,1962E-01
672,22	-1,3679E-01
672,57	-5,9151E-02
672,91	2,8046E-02
673,25	-1,5073E-01
673,59	-5,1327E-03
673,93	-9,7922E-02
674,27	-1,2680E-01
674,61	-9,4357E-02
674,95	-7,2945E-02
675,28	-1,5826E-01
675,62	-1,1289E-01
675,96	-1,3449E-01
676,30	-1,5801E-02
676,64	-1,1374E-01
676,98	-3,9364E-02
677,32	-1,4713E-01
677,66	-7,9878E-03
678,00	-1,7008E-01
678,34	-1,2486E-01
678,68	-5,1196E-02
679,02	-7,2765E-02
679,36	-9,1775E-02
679,70	-1,2696E-01
680,04	-5,6708E-02
680,38	-3,7999E-02
680,72	-8,2879E-02
681,06	-1,0683E-01
681,39	-8,8217E-02
681,73	-4,9764E-02
682,07	-1,0817E-01
682,41	-1,8004E-01
682,75	-1,0465E-01
683,09	-1,7435E-01
683,43	-4,4631E-02
683,77	-2,8339E-03
684,11	-5,6512E-03
684,44	-9,8432E-02
684,78	5,0848E-02
685,12	-8,5622E-02
685,46	-1,1942E-01
685,80	-1,5958E-01
686,14	-9,7031E-02
686,48	-1,9298E-01
686,81	-7,2555E-02
687,15	-3,4406E-02
687,49	-2,8848E-02
687,83	-1,7387E-01
688,17	-1,6469E-01
688,51	-1,1371E-01
688,84	-1,0886E-01
689,18	-5,8505E-02
689,52	5,9113E-02
689,86	-1,0702E-01
690,20	-1,3238E-01
690,53	-1,2595E-01
690,87	-1,6923E-01
691,21	-8,7088E-02
691,55	-6,8999E-02
691,88	-4,8241E-02
692,22	-1,2710E-01
692,56	-9,8801E-02
692,90	-6,5858E-02
693,23	-1,8072E-02
693,57	-2,9986E-02
693,91	-8,1906E-02
694,25	-3,9500E-02
694,58	-5,5112E-02
694,92	-1,9985E-01
695,26	-1,9022E-01
695,60	-6,1423E-03
695,93	-2,0345E-01
696,27	-1,3957E-01
696,61	-1,4201E-01
696,94	-1,2874E-01
697,28	-1,5551E-01
697,62	-8,4840E-02
697,96	-1,5609E-01
698,29	-1,5513E-01
698,63	-4,9800E-02
698,97	-5,9583E-02
699,30	-1,7714E-01
699,64	-6,9702E-02
699,98	-2,9306E-01
700,31	-1,0095E-01
700,65	-1,0846E-01
700,99	-1,4351E-01
701,32	-2,0489E-01
701,66	-1,7281E-01
702,00	-1,4945E-01
702,33	-1,1463E-01
702,67	-2,8695E-02
703,00	-1,8120E-01
703,34	-9,6974E-02
703,68	-1,5160E-01
704,01	-4,2441E-02
704,35	-1,9025E-01
704,69	-1,0402E-01
705,02	-2,6017E-02
705,36	-4,5298E-02
705,69	-1,5006E-01
706,03	-7,2355E-02
706,36	-2,0310E-01
706,70	-7,5191E-02
707,04	-1,7944E-01
707,37	-1,3729E-01
707,71	1,6375E-02
708,04	-8,8951E-02
708,38	-2,2161E-01
708,71	-2,0326E-01
709,05	-1,1645E-01
709,39	-1,0308E-01
709,72	-1,6260E-01
710,06	-1,1628E-01
710,39	-1,1091E-01
710,73	-1,0355E-01
711,06	-1,8504E-01
711,40	-8,6840E-02
711,73	-1,3123E-01
712,07	-1,6147E-01
712,40	-1,2844E-01
712,74	-1,6282E-01
713,07	-7,1256E-02
713,41	-7,4739E-02
713,74	-8,7577E-02
714,08	-1,4057E-01
714,41	-1,3276E-01
714,75	-1,3412E-01
715,08	-5,7538E-02
715,42	-1,6740E-01
715,75	-9,9275E-02
716,08	-1,8955E-01
716,42	-1,6870E-01
716,75	-7,5592E-02
717,09	-1,3476E-01
717,42	-3,8113E-02
717,76	-9,6538E-02
718,09	-9,7726E-02
718,43	-7,3086E-02
718,76	-1,1209E-01
719,09	-1,0455E-01
719,43	-2,4926E-01
719,76	3,5022E-03
720,10	-8,8599E-02
720,43	-5,6210E-02
720,76	-5,2496E-02
721,10	-1,0536E-01
721,43	-1,1636E-01
721,76	-1,2070E-01
722,10	-9,8574E-02
722,43	-1,5932E-01
722,77	-1,2774E-01
723,10	-9,2675E-02
723,43	-1,8188E-01
723,77	-1,4191E-01
724,10	-1,3566E-01
724,43	-2,0712E-01
724,77	-1,6785E-01
725,10	-1,2693E-01
725,43	-5,3604E-02
725,77	-1,2547E-01
726,10	-2,1709E-01
726,43	-1,1856E-01
726,77	-7,2573E-02
727,10	-1,5216E-01
727,43	-5,4557E-02
727,77	3,6499E-03
728,10	-1,1640E-01
728,43	-1,0398E-01
728,76	-1,7356E-01
729,10	-1,5818E-01
729,43	-6,5994E-02
729,76	-2,2884E-01
730,09	-1,9980E-01
730,43	-1,2277E-01
730,76	1,1054E-02
731,09	-1,7670E-01
731,42	-1,5393E-01
731,76	-1,6355E-01
732,09	-2,3461E-01
732,42	3,3700E-02
732,75	-1,2836E-01
733,09	-1,6554E-01
733,42	-6,4782E-02
733,75	-1,9287E-01
734,08	-1,0010E-01
734,41	3,7975E-02
734,75	-5,7317E-02
735,08	-2,2183E-01
735,41	-1,6930E-01
735,74	-1,4606E-01
736,07	-7,7894E-02
736,41	-1,5864E-01
736,74	-1,4455E-01
737,07	-6,6086E-02
737,40	-9,7086E-02
737,73	-4,2810E-02
738,06	-2,1279E-01
738,40	-2,5152E-01
738,73	-1,1787E-01
739,06	-1,7507E-01
739,39	-1,9050E-01
739,72	-2,1211E-01
740,05	3,9898E-03
740,38	-2,1687E-01
740,72	-1,9045E-01
741,05	-1,4166E-01
741,38	-1,2377E-01
741,71	-6,5304E-02
742,04	-2,4457E-01
742,37	-2,3613E-01
742,70	-1,7830E-01
743,03	-2,0127E-01
743,36	-1,7785E-01
743,69	-2,5094E-01
744,02	-2,6086E-01
744,36	-2,1966E-01
744,69	-1,9183E-01
745,02	-1,1231E-01
745,35	0,0000E00
745,68	-3,3618E-02
746,01	-1,3870E-01
746,34	-1,1404E-01
746,67	-1,2260E-01
747,00	-2,8659E-01
747,33	-1,9486E-01
747,66	-1,0683E-01
747,99	-1,6813E-01
748,32	-2,2439E-01
748,65	-1,2142E-01
748,98	-1,3931E-01
749,31	-1,5217E-01
749,64	-1,6617E-01
749,97	-2,8692E-01
750,30	-8,7308E-02
750,63	-1,4153E-01
750,96	-1,3263E-01
751,29	-8,8901E-02
751,62	-1,1944E-01
751,95	-5,8047E-02
752,28	-1,7221E-01
752,61	-1,6091E-01
752,94	-1,5694E-01
753,27	-9,4379E-02
753,60	-9,9386E-02
753,92	-2,4549E-01
754,25	-1,6916E-01
754,58	-1,7399E-01
754,91	-1,8267E-01
755,24	-1,7599E-01
755,57	-8,2995E-02
755,90	-1,4747E-01
756,23	-6,1122E-02
756,56	-2,2335E-01
756,89	-1,7859E-01
757,22	-1,3167E-01
757,54	-7,5050E-02
757,87	-7,0120E-02
758,20	-1,6527E-01
758,53	-2,5127E-01
758,86	-9,5850E-02
759,19	-9,5487E-02
759,52	-1,2956E-01
759,84	-9,0892E-02
760,17	-2,6518E-01
760,50	-1,4991E-01
760,83	-7,2615E-02
761,16	-2,3137E-01
761,49	-1,3249E-01
761,81	-3,9461E-01
762,14	-2,5764E-01
762,47	-2,5290E-01
762,80	-1,7316E-01
763,13	-1,7948E-01
763,45	-1,5092E-01
763,78	-2,2506E-01
764,11	-2,2105E-01
764,44	-2,0761E-01
764,77	-1,3638E-01
765,09	-1,7312E-01
765,42	-2,2915E-01
765,75	-2,3480E-01
766,08	-2,7111E-01
766,40	-2,4587E-01
766,73	-7,2018E-02
767,06	-2,9538E-01
767,39	-3,1700E-01
767,71	-3,4349E-01
768,04	-2,3593E-01
768,37	-1,3625E-01
768,70	1,0541E-02
769,02	-2,4410E-01
769,35	-7,4347E-02
769,68	-1,4847E-01
770,00	-2,1881E-01
770,33	-2,3026E-01
770,66	-4,2656E-02
770,99	-2,6067E-01
771,31	-3,1279E-01
771,64	-1,6823E-01
771,97	-2,0369E-01
772,29	-3,2487E-01
772,62	-2,0952E-01
772,95	-1,4797E-01
773,27	-1,9997E-01
773,60	-1,7206E-01
773,93	-2,2550E-01
774,25	-8,8163E-02
774,58	-1,7829E-01
774,90	-5,0107E-02
775,23	-6,2293E-02
775,56	-2,3617E-01
775,88	-9,6614E-02
776,21	-2,2277E-01
776,54	-1,2545E-01
776,86	-2,7366E-01
777,19	-2,2118E-01
777,51	-2,7794E-01
777,84	-9,6833E-02
778,16	-1,6223E-01
778,49	-2,1660E-01
778,82	-3,3396E-01
779,14	-2,9230E-01
779,47	-1,0984E-01
779,79	-2,4832E-01
780,12	-7,6686E-02
780,44	-1,3465E-01
780,77	-4,1739E-01
781,10	-2,2788E-01
781,42	-1,3750E-01
781,75	-4,6201E-01
782,07	-2,7242E-01
782,40	-3,8474E-01
782,72	-3,0253E-01
783,05	-1,0459E-01
783,37	-1,2439E-02
783,70	-1,2953E-01
784,02	-6,1605E-02
784,35	-2,1603E-01
784,67	-3,3951E-01
785,00	-7,4834E-02
785,32	-2,9762E-01
785,65	-2,7136E-01
785,97	-1,0109E-01
786,30	-1,0151E-01
786,62	-1,8169E-01
786,94	-3,5352E-01
787,27	-1,6526E-01
787,59	-1,0331E-01
787,92	-4,2031E-01
788,24	-3,4836E-01
788,57	-1,6728E-01
788,89	-2,1123E-01
789,22	-2,9941E-01
789,54	9,0041E-02
789,86	-1,9319E-01
790,19	-3,3536E-01
790,51	-1,9614E-01
790,84	-1,5454E-01
791,16	-1,8430E-01
791,48	-3,5452E-01
791,81	6,3693E-02
792,13	-1,2347E-01
792,45	-1,3608E-01
792,78	-2,2766E-01
793,10	-3,0683E-01
793,43	-2,9001E-01
793,75	-9,7097E-02
794,07	-3,2111E-02
794,40	-2,3518E-01
794,72	-3,3692E-01
795,04	-2,7672E-01
795,37	-3,5626E-01
795,69	3,2276E-02
796,01	-4,0467E-01
796,34	-1,9042E-02
796,66	-1,7819E-01
796,98	-8,7872E-02
797,30	-1,7150E-01
797,63	-2,7151E-01
797,95	-3,3987E-01
798,27	-7,6102E-02
798,60	-2,0032E-01
798,92	-1,9054E-01
799,24	-4,1337E-01
799,56	6,3650E-02
799,89	-3,9409E-01
800,21	-2,2059E-01
800,53	-2,8390E-01
800,85	-2,0213E-01
801,18	-2,7780E-01
801,50	-3,0738E-01
801,82	-4,2354E-01
802,14	-4,2101E-01
802,47	-1,9130E-01
802,79	-2,2126E-01
803,11	-2,7121E-01
803,43	-3,3978E-01
803,75	-3,6408E-01
804,08	-4,3766E-01
804,40	-1,7723E-01
804,72	-2,9648E-01
805,04	-5,6642E-02
805,36	-2,1583E-01
805,69	-2,5215E-02
806,01	-1,0834E-01
806,33	-1,8463E-01
806,65	-1,5871E-01
806,97	-2,8474E-01
807,29	-5,1535E-02
807,62	-2,8598E-01
807,94	-2,6130E-01
808,26	-2,1186E-01
808,58	-1,7306E-01
808,90	-3,1027E-01
809,22	-4,3619E-01
809,54	-2,5724E-01
809,86	-2,2118E-01
810,18	-2,5882E-01
810,51	-2,8518E-01
810,83	-3,3757E-01
811,15	-5,1410E-01
811,47	-3,8981E-02
811,79	-2,3155E-01
812,11	-2,3594E-01
812,43	-2,0546E-01
812,75	-2,2732E-01
813,07	-1,3146E-02
813,39	-2,1746E-01
813,71	-2,9920E-01
814,03	-5,2094E-01
814,35	-2,6846E-01
814,67	-9,9668E-02
814,99	-1,0737E-01
815,31	-3,1582E-01
815,64	-2,5651E-01
815,96	-2,2828E-01
816,28	-2,8295E-01
816,60	-4,9411E-01
816,92	-2,3847E-01
817,24	-3,2949E-01
817,56	-2,4821E-01
817,88	-2,1242E-01
818,19	-3,6216E-01
818,51	-4,0840E-01
818,83	-3,0318E-01
819,15	-1,7256E-01
819,47	-3,7633E-01
819,79	-9,0268E-02
820,11	-1,7364E-01
820,43	-5,2787E-01
820,75	-1,3390E-01
821,07	-2,2521E-01
821,39	-4,0618E-01
821,71	-6,3900E-02
822,03	-4,6615E-01
822,35	-3,4921E-01
822,67	-4,2980E-01
822,99	-4,5605E-01
823,31	-3,4947E-01
823,62	-4,4754E-01
823,94	-3,8487E-01
824,26	-2,3252E-01
824,58	1,5432E-01
824,90	-4,7522E-01
825,22	-3,2072E-01
825,54	-4,3978E-02
825,86	-8,8900E-02
826,17	-2,6077E-01
826,49	-7,3542E-02
826,81	-2,1677E-01
827,13	-2,5256E-01
827,45	-2,8336E-01
827,77	-4,7046E-01
828,08	-3,3069E-01
828,40	-5,1641E-01
828,72	-4,2878E-01
829,04	-3,5630E-01
829,36	-2,2797E-01
829,67	-1,4404E-01
829,99	-3,1483E-01
830,31	-3,8148E-01
830,63	-2,5821E-01
830,95	-4,4357E-01
831,26	-2,3544E-01
831,58	-3,3601E-01
831,90	-2,9787E-01
832,22	-1,2552E-01
832,53	-4,0501E-01
832,85	-2,7844E-01
833,17	-1,8321E-01
833,49	-1,8424E-01
833,80	-1,4499E-01
834,12	-2,6567E-01
834,44	-7,3185E-02
834,76	-2,8174E-01
835,07	-2,8655E-01
835,39	-5,8648E-01
835,71	-3,4576E-01
836,02	-3,8028E-01
836,34	-6,5767E-02
836,66	-3,6505E-01
836,97	-9,0144E-02
837,29	-4,2577E-01
837,61	-2,7322E-01
837,93	-2,7364E-01
838,24	-1,6638E-01
838,56	-4,3791E-01
838,88	-4,4637E-01
839,19	-3,1429E-01
839,51	-1,2764E-01
839,82	-2,5263E-02
840,14	-2,0734E-01
840,46	1,4515E-01
840,77	-2,8292E-01
841,09	-2,5735E-01
841,41	-4,3997E-01
841,72	-1,3011E-01
842,04	-5,1260E-01
842,35	-2,7828E-01
842,67	-1,6651E-01
842,99	-2,3615E-01
843,30	-4,6645E-01
843,62	-3,6568E-01
843,93	-4,7064E-01
844,25	-4,8958E-01
844,56	-6,1552E-01
844,88	-5,4982E-01
845,20	-3,3424E-01
845,51	-2,5187E-01
845,83	-1,7240E-01
846,14	-7,2442E-02
846,46	-5,2521E-01
846,77	-3,6420E-01
847,09	-5,8888E-01
847,40	-8,1696E-01
847,72	-2,7769E-01
848,03	-5,5689E-02
848,35	-2,6262E-01
848,66	-3,2714E-01
848,98	-2,9981E-01
849,29	-5,4306E-01
849,61	-3,4195E-01
849,92	-5,8389E-01
850,24	-2,6826E-01
850,55	-3,1747E-01
850,87	-3,1456E-01
851,18	-4,7167E-01
851,50	-5,2666E-01
851,81	-3,9038E-01
852,12	-5,0714E-01
852,44	-9,8221E-02
852,75	-3,1751E-01
853,07	-2,2811E-01
853,38	-2,9809E-01
853,70	-2,4200E-01
854,01	-5,4767E-01
854,32	-4,8131E-01
854,64	-4,6462E-01
854,95	-1,5232E-01
855,27	-4,2545E-01
855,58	-2,3525E-01
855,89	-6,8317E-01
856,21	-3,9175E-01
856,52	-2,5584E-01
856,83	-5,7401E-01
857,15	-2,7004E-01
857,46	-3,8491E-01
857,77	-7,2075E-01
858,09	-6,1332E-01
858,40	-6,1723E-01
858,71	-5,6461E-01
859,03	-5,1163E-01
859,34	-2,3343E-01
859,65	-8,8493E-01
859,97	-9,3726E-01
860,28	-4,0274E-01
860,59	-9,8831E-02
860,91	-5,3551E-01
861,22	-2,1920E-01
861,53	-7,4915E-01
861,84	-2,0632E-01
862,16	-5,5068E-01
862,47	2,2354E-01
862,78	-6,0413E-01
863,10	-5,2982E-01
863,41	-2,1216E-01
863,72	-3,3433E-01
864,03	5,7144E-02
864,35	-1,9319E-01
864,66	-4,4528E-01
864,97	-2,8645E-01
865,28	-3,5614E-01
865,59	-6,1177E-01
865,91	-5,6550E-01
866,22	-7,8418E-01
866,53	-5,3945E-01
866,84	-4,4766E-01
867,15	-5,9760E-01
867,47	-4,7229E-01
867,78	-3,3349E-01
868,09	-1,0075E00
868,40	-3,2587E-01
868,71	-5,3026E-01
869,02	-2,7968E-01
869,34	-4,5911E-01
869,65	-4,5130E-01
869,96	-2,8670E-01
870,27	-5,8389E-01
870,58	-5,5966E-01
870,89	-1,7707E-01
871,20	-7,8393E-01
871,52	-6,1028E-01
871,83	-4,0226E-01
872,14	-1,6655E-01
872,45	-5,7612E-01
872,76	-6,8594E-01
873,07	-2,5972E-01
873,38	-6,6072E-01
873,69	-7,8442E-01
874,00	-5,4734E-01
874,31	-1,2947E-01
874,62	-5,4269E-01
874,94	-2,6683E-01
875,25	-4,9851E-01
875,56	-7,6922E-01
875,87	1,8598E-01
876,18	-2,1715E-01
876,49	-5,4015E-01
876,80	-4,1028E-01
877,11	-3,2663E-01
877,42	-3,9315E-01
877,73	-3,6674E-01
878,04	-5,0316E-01
878,35	-4,0968E-01
878,66	-7,8256E-01
878,97	-1,6628E-01
879,28	-5,0559E-01
879,59	-2,4894E-01
879,90	-2,3678E-01
880,21	-6,8645E-01
880,52	-4,2154E-01
880,83	-5,1971E-01
881,14	-2,0796E-01
881,45	-8,0363E-01
881,76	-3,6225E-01
882,07	-6,7455E-01
882,37	-4,9051E-01
882,68	-6,9869E-02
882,99	-6,4798E-01
883,30	-3,2230E-01
883,61	-4,8558E-01
883,92	-4,1280E-01
884,23	-5,4932E-01
884,54	-7,7147E-01
884,85	5,7116E-02
885,16	-8,7169E-01
885,47	2,8251E-02
885,77	-3,7056E-01
886,08	-6,5123E-01
886,39	-5,1373E-01
886,70	-2,5569E-01
887,01	-1,6842E-01
887,32	-4,9259E-01
887,63	-8,5186E-01
887,93	-3,3360E-01
888,24	-2,9731E-01
888,55	-5,3186E-01
888,86	-4,1079E-01
889,17	-7,3675E-01
889,47	-7,1070E-01
889,78	-4,0788E-01
890,09	-6,0373E-01
890,40	-5,6735E-01
890,71	-5,6358E-01
891,01	-1,2706E-01
891,32	-5,9063E-01
891,63	-9,4699E-01
891,94	-6,5012E-01
892,25	-5,4003E-01
892,55	-5,7481E-01
892,86	-8,1113E-01
893,17	-6,0982E-01
893,48	-1,4221E-01
893,78	-6,2590E-01
894,09	-5,6572E-01
894,40	-9,3008E-01
894,70	-5,6469E-01
895,01	-6,7371E-01
895,32	8,4613E-02
895,63	-1,5591E-01
895,93	-4,8692E-01
896,24	-7,9588E-01
896,55	-4,2004E-01
896,85	-4,2877E-01
897,16	-7,3858E-01
897,47	-4,4036E-01
897,77	-5,6627E-02
898,08	-3,4078E-01
898,39	-3,3000E-01
898,69	-1,1329E-01
899,00	-6,1846E-01
899,31	-2,8122E-01
899,61	-4,1007E-01
899,92	-5,3622E-01
900,23	-5,3035E-01
900,53	-7,5902E-01
900,84	-3,5955E-01
901,14	-7,6281E-01
901,45	-8,1539E-01
901,76	-1,0594E00
902,06	-4,0526E-01
902,37	-6,9388E-01
902,67	-1,0937E00
902,98	-9,1855E-01
903,29	-4,1486E-01
903,59	-1,7761E-01
903,90	-3,8760E-01
904,20	-8,0670E-01
904,51	-1,0169E00
904,81	-6,7680E-01
905,12	-6,1139E-01
905,42	-4,3471E-01
905,73	-2,8557E-01
906,03	-9,8665E-01
906,34	-5,1334E-01
906,64	-6,1149E-01
906,95	-4,9060E-01
907,25	-8,6900E-01
907,56	-4,3290E-01
907,86	-2,7683E-01
908,17	-4,5517E-01
908,47	-7,4007E-01
908,78	-6,7241E-01
909,08	-7,0040E-01
909,39	-3,8024E-01
909,69	-9,1965E-01
910,00	-5,8019E-01
910,30	-1,2381E00
910,61	-5,7796E-01
910,91	-6,4316E-01
911,21	-8,5655E-01
911,52	-6,9577E-01
911,82	-7,2686E-01
912,13	-1,1378E-01
912,43	-8,4274E-01
912,74	-3,1513E-01
913,04	-4,3406E-01
913,34	-3,1865E-01
913,65	-5,8618E-01
913,95	-2,7179E-01
914,25	-7,5517E-01
914,56	-8,2161E-01
914,86	-6,6715E-01
915,17	-3,6095E-01
915,47	-8,1161E-01
915,77	-4,1968E-01
916,08	-6,7995E-01
916,38	1,3980E-01
916,68	-4,9097E-01
916,99	-4,9335E-01
917,29	-6,7912E-01
917,59	-8,9321E-01
917,90	-1,2359E00
918,20	-8,1407E-01
918,50	-8,3106E-01
918,80	-5,4480E-01
919,11	-1,0664E00
919,41	-8,2748E-01
919,71	-8,5437E-01
920,02	-3,8703E-01
920,32	-1,0776E00
920,62	-5,5968E-01
920,92	5,5148E-02
921,23	-9,1362E-01
921,53	-7,0227E-01
921,83	-6,9660E-01
922,13	-7,6360E-01
922,44	-2,2891E-01
922,74	-9,8165E-01
923,04	-5,7412E-01
923,34	-8,6987E-01
923,64	-8,3147E-01
923,95	-1,0589E00
924,25	-1,0813E00
924,55	-1,3556E00
924,85	-8,1050E-01
925,15	-1,2121E00
925,46	-6,6295E-01
925,76	-9,6898E-01
926,06	8,0708E-02
926,36	-1,2284E00
926,66	-1,6768E00
926,96	-9,9016E-01
927,26	-4,1358E-01
927,57	-8,2647E-01
927,87	-1,0014E00
928,17	-4,9224E-01
928,47	-4,6604E-01
928,77	-1,0778E00
929,07	-1,0853E00
929,37	-2,6002E-01
929,67	8,6967E-02
929,98	-9,3071E-01
930,28	3,1027E-01
930,58	-6,0485E-01
930,88	-2,1395E00
931,18	-7,9473E-01
931,48	-1,1447E00
931,78	-1,3110E00
932,08	-6,1507E-01
932,38	-1,4542E00
932,68	-1,0725E00
932,98	-8,3938E-01
933,28	-7,6070E-01
933,58	-1,3867E00
933,88	-3,5521E-01
934,18	-7,7049E-01
934,48	-1,2691E00
934,78	-5,8608E-01
935,08	-4,3167E-01
935,38	-3,4024E-01
935,68	-7,1133E-01
935,98	-8,2571E-01
936,28	-8,8279E-01
936,58	0,0000E00
936,88	0,0000E00
937,18	-7,6463E-01
937,48	-4,0884E-01
937,78	-1,1873E00
938,08	-1,4611E00
938,38	-1,6368E00
938,68	-6,4538E-01
938,98	-3,4100E-01
939,28	-1,3004E00
939,57	-7,3612E-01
939,87	-1,8351E00
940,17	-1,2114E00
940,47	2,6983E-01
940,77	-1,0613E00
941,07	-1,8318E00
941,37	-6,5834E-01
941,67	-8,3999E-01
941,97	-7,1643E-01
942,26	-1,1855E00
942,56	-1,8033E00
942,86	-1,0713E00
943,16	-8,1700E-01
943,46	-1,4044E00
943,76	-1,3277E00
944,06	-6,5459E-01
944,35	-6,6740E-01
944,65	-1,1167E00
944,95	-1,0071E00
945,25	-1,8871E00
945,55	-1,5489E00
945,84	-7,4582E-01
946,14	-1,3012E00
946,44	-8,3503E-01
946,74	-1,8238E00
947,03	-2,0621E00
947,33	-8,4058E-01
947,63	-5,3153E-01
947,93	-7,3776E-01
948,23	-9,2057E-01
948,52	-1,2818E00
948,82	-2,6000E00
949,12	-1,7291E00
949,41	-3,2430E-01
949,71	-1,5758E00
950,01	-1,5335E00
950,31	-1,0005E00
950,60	-7,9978E-01
950,90	-7,1232E-01
951,20	-9,9590E-01
951,49	-2,0591E-01
951,79	-1,0251E-01
952,09	-9,0093E-01
952,38	-1,1703E00
952,68	-1,5849E00
952,98	-9,3157E-01
953,27	-1,3983E00
953,57	-2,0166E00
953,87	-2,9383E00
954,16	-1,2127E00
954,46	-8,5955E-01
954,76	-1,4912E00
955,05	-1,5171E00
955,35	-1,1347E00
955,64	-1,4721E-01
955,94	-3,3518E00
956,24	-2,2825E00
956,53	-6,8406E-01
956,83	-6,1240E-01
957,12	-1,5393E00
957,42	-1,7283E00
957,72	-2,3263E00
958,01	-1,0281E00
958,31	-2,5816E00
958,60	-9,7913E-01
958,90	-1,5071E00
959,19	-1,2377E00
959,49	-2,3009E00
959,78	0,0000E00
960,08	-1,4601E00
960,37	-1,8225E00
960,67	-1,0040E00
960,96	-1,3607E00
961,26	-3,0341E00
961,55	-2,0913E00
961,85	-4,2995E-02
962,14	-1,9877E00
962,44	2,6495E-01
962,73	-2,4925E00
963,03	-2,5739E00
963,32	-1,1575E00
963,62	-1,0868E00
963,91	-4,5681E-01
964,21	-9,8144E-01
964,50	-1,8281E00
964,80	-4,6381E-01
965,09	-1,6454E00
965,38	-1,4216E00
965,68	-2,1091E00
965,97	-1,5376E00
966,27	-2,7721E00
966,56	-2,7392E00
966,85	-1,9094E00
967,15	-2,3630E00
967,44	-1,6772E00
967,74	-1,5864E00
968,03	-1,4112E00
968,32	-2,0433E00
968,62	-2,7208E00
968,91	-2,2068E00
969,20	-2,6923E00
969,50	-1,4140E00
969,79	-1,5011E00
970,08	-3,0088E00
970,38	-1,8877E00
970,67	-3,7266E-01
970,96	-2,6424E00
971,26	-3,3822E00
971,55	-2,7052E00
971,84	-2,3455E00
972,13	-5,0158E-01
972,43	-3,4106E00
972,72	-1,5135E00
973,01	-2,7505E00
973,31	-5,7240E-01
973,60	-1,3862E00
973,89	-3,0792E00
974,18	-2,1223E00
974,48	-7,6909E-01
974,77	-4,1616E00
975,06	-6,6044E-01
975,35	-1,2968E00
975,64	-2,1721E00
975,94	-3,1545E00
976,23	-3,8574E00
976,52	-3,9648E00
976,81	-4,5895E00
977,10	-1,5473E00
977,40	-3,0585E00
977,69	-3,1048E00
977,98	-2,3351E00
978,27	-2,8132E00
978,56	-1,8120E00
978,86	-2,5253E00
979,15	-3,1083E00
979,44	-1,7023E00
979,73	-2,6764E00
980,02	-2,6221E00
980,31	-3,2996E00
980,60	-2,2479E00
980,89	-5,3004E00
981,19	-2,9829E00
981,48	-1,8884E00
981,77	-2,1980E00
982,06	-3,1021E00
982,35	-6,3995E00
982,64	-1,9486E00
982,93	-1,7297E00
983,22	-4,4397E00
983,51	-1,3161E00
983,80	-4,9680E00
984,09	-3,6445E00
984,38	-3,6724E00
984,67	-3,5387E00
984,96	-1,9333E00
985,25	-1,9873E00
985,55	-1,6104E00
985,84	-4,7320E00
986,13	-2,4684E00
986,42	-1,5283E00
986,71	-2,6396E00
987,00	-2,0107E00
987,29	-4,4470E00
987,58	-3,9415E00
987,86	-3,8625E00
988,15	-3,7174E00
988,44	-1,8864E00
988,73	1,2537E00
989,02	-1,0798E00
989,31	-2,8915E00
989,60	-4,7506E00
989,89	-4,5377E00
990,18	-4,1182E00
990,47	-1,9559E00
990,76	-1,4751E00
991,05	-3,5956E00
991,34	-1,6377E00
991,63	-4,6284E00
991,92	-8,7732E00
992,20	-2,2094E00
992,49	-2,8137E00
992,78	-3,9031E00
993,07	-2,8556E00
993,36	-2,3147E00
993,65	2,9365E00
993,94	-1,7936E00
994,22	-3,9670E00
994,51	-1,0890E-01
994,80	-9,5333E-01
995,09	-1,9881E00
995,38	-3,2086E00
995,67	-2,9705E00
995,95	-8,4725E00
996,24	-3,2930E00
996,53	-7,3821E00
996,82	-9,0412E00
997,11	-7,1010E00
997,39	-5,9953E00
997,68	-2,9151E00
997,97	-3,9786E00
998,26	-8,9332E00
998,54	-4,4781E00
998,83	-5,0235E00
999,12	-4,8130E00
999,41	-4,7044E00
999,69	-6,3010E00
999,98	-4,3492E00
1000,27	-5,9218E00
1000,56	-6,4237E00
1000,84	-4,5780E00
1001,13	-5,4753E-01
1001,42	-6,5041E00
1001,70	-2,7638E00
1001,99	-1,1853E01
1002,28	-4,7072E00
1002,56	-7,1851E00
1002,85	-8,3746E00
1003,14	-1,1251E01
1003,42	-4,6392E00
1003,71	-4,4331E00
1004,00	-4,3446E00
1004,28	-3,4076E00
1004,57	-7,4415E00
1004,86	-6,9214E00
1005,14	-3,8367E00
1005,43	-5,7048E00
1005,72	-9,0228E00
1006,00	-2,8400E00
1006,29	-7,4262E00
1006,57	-6,5115E00
1006,86	-6,4511E00
1007,15	-8,2039E00
1007,43	-3,8627E00
1007,72	-7,1054E00
1008,00	-4,7988E00
1008,29	-2,3610E00
1008,57	-8,0383E00
1008,86	-1,7770E00
1009,14	-1,3075E01
1009,43	-9,9981E00
1009,71	-4,0197E00
1010,00	-1,4217E01
1010,29	-9,5945E00
1010,57	-8,5781E00
1010,86	-8,5628E00
1011,14	-8,3020E00
1011,43	-6,8880E00
1011,71	-7,2551E00
1011,99	-1,4384E00
1012,28	-1,3520E01
1012,56	-9,0302E00
1012,85	-8,5993E00
1013,13	-1,2094E01
1013,42	-3,4446E00
1013,70	-7,4594E00
1013,99	-1,0427E01
1014,27	-1,0717E01
1014,56	-1,2867E01
1014,84	-4,6132E00
1015,12	-7,1357E00
1015,41	1,3277E00
1015,69	-4,9189E00
1015,98	-8,1256E00
1016,26	-7,8026E00
1016,54	-9,3663E00
1016,83	-3,3251E00
1017,11	-8,1164E00
1017,39	-1,4363E00
1017,68	-1,7947E01
1017,96	-1,4074E01
1018,25	-9,9397E00
1018,53	-1,6565E01
1018,81	-9,5917E00
1019,10	-2,1626E01
1019,38	-1,1938E01
1019,66	-1,9207E01
1019,94	-2,1214E01
1020,23	-2,0732E01
1020,51	-1,4193E01
1020,79	-7,1131E00
1021,08	-9,8225E00
1021,36	-1,3840E01
1021,64	-6,8600E00
1021,93	-8,4524E00
1022,21	-1,5608E01
1022,49	-1,5608E01
>>>>>End Processed Spectral Data<<<<<
