SpectraSuite Data File
++++++++++++++++++++++++++++++++++++
Date: Mon May 06 15:29:39 EEST 2019
User: mkilpela
Dark Spectrum Present: Yes
Reference Spectrum Present: No
Number of Sampled Component Spectra: 1
Spectrometers: JAZA2845
Integration Time (usec): 1143 (JAZA2845)
Spectra Averaged: 1 (JAZA2845)
Boxcar Smoothing: 1 (JAZA2845)
Correct for Electrical Dark: No (JAZA2845)
Strobe/Lamp Enabled: No (JAZA2845)
Correct for Detector Non-linearity: No (JAZA2845)
Correct for Stray Light: No (JAZA2845)
Number of Pixels in Processed Spectrum: 2048
>>>>>Begin Processed Spectral Data<<<<<
340,21	0,0000E00
340,58	0,0000E00
340,96	0,0000E00
341,33	0,0000E00
341,70	0,0000E00
342,07	-0,0000E00
342,45	-0,0000E00
342,82	-0,0000E00
343,19	-0,0000E00
343,57	0,0000E00
343,94	0,0000E00
344,31	0,0000E00
344,68	-0,0000E00
345,06	-0,0000E00
345,43	-0,0000E00
345,80	-0,0000E00
346,18	-0,0000E00
346,55	-0,0000E00
346,92	-0,0000E00
347,29	-0,0000E00
347,67	-0,0000E00
348,04	-0,0000E00
348,41	0,0000E00
348,78	-0,0000E00
349,16	-0,0000E00
349,53	-0,0000E00
349,90	-0,0000E00
350,27	-3,1053E-01
350,64	-7,2510E-02
351,02	2,2365E-01
351,39	5,0460E-01
351,76	7,0298E-01
352,13	1,0644E00
352,51	1,0536E00
352,88	5,3609E-01
353,25	4,2734E-02
353,62	3,4004E-01
353,99	5,2724E-01
354,37	6,0313E-01
354,74	6,3194E-01
355,11	6,4914E-01
355,48	5,6072E-01
355,85	5,3424E-02
356,23	3,3436E-01
356,60	1,1676E-01
356,97	4,1481E-01
357,34	2,1447E-01
357,71	3,9855E-01
358,08	4,5524E-01
358,46	1,8520E-01
358,83	-8,0404E-02
359,20	-2,7132E-01
359,57	1,7705E-01
359,94	3,1002E-01
360,31	-4,4130E-01
360,69	-3,1033E-01
361,06	1,1818E-01
361,43	8,0215E-01
361,80	3,0593E-01
362,17	3,1978E-01
362,54	2,2483E-01
362,91	1,6426E-01
363,29	-3,3442E-01
363,66	-4,3012E-01
364,03	-2,0565E-01
364,40	-5,3675E-02
364,77	3,0382E-01
365,14	1,2851E-01
365,51	-7,5995E-02
365,88	2,5410E-02
366,26	-8,8510E-02
366,63	2,7442E-01
367,00	2,9606E-01
367,37	8,0370E-01
367,74	9,5011E-01
368,11	8,4172E-01
368,48	5,1310E-02
368,85	-5,2438E-02
369,22	5,1770E-02
369,59	8,3250E-01
369,97	4,3031E-01
370,34	1,8633E-01
370,71	-3,5333E-01
371,08	-2,9074E-01
371,45	-4,3243E-01
371,82	-7,4326E-01
372,19	-7,6283E-01
372,56	-8,9818E-01
372,93	-3,8628E-01
373,30	-2,3841E-01
373,67	4,5122E-02
374,04	-3,8963E-01
374,41	-4,4887E-02
374,78	-1,0073E-01
375,15	3,3545E-01
375,52	-6,6726E-02
375,89	5,6179E-02
376,26	1,4706E-01
376,63	2,9341E-01
377,00	-4,3819E-02
377,38	-1,8592E-01
377,75	7,6221E-02
378,12	-2,1720E-02
378,49	3,3074E-01
378,86	6,3978E-02
379,23	5,4785E-01
379,60	2,2332E-01
379,97	3,8093E-01
380,34	8,5721E-02
380,71	-1,4735E-01
381,08	-2,4196E-01
381,45	1,8683E-01
381,82	3,5438E-01
382,19	3,0336E-01
382,55	2,3881E-01
382,92	5,5702E-01
383,29	3,3603E-01
383,66	2,1772E-01
384,03	1,2479E-01
384,40	1,6090E-01
384,77	0,0000E00
385,14	-3,5549E-01
385,51	-2,3520E-01
385,88	-1,9766E-01
386,25	-4,2388E-02
386,62	-7,6416E-02
386,99	-1,0977E-01
387,36	9,2450E-02
387,73	2,1881E-01
388,10	6,4396E-01
388,47	3,9353E-01
388,84	2,8341E-01
389,21	-1,2870E-01
389,58	-2,8844E-01
389,94	-2,2383E-01
390,31	-1,9534E-01
390,68	-6,8411E-02
391,05	1,4469E-01
391,42	-3,0426E-02
391,79	1,5178E-01
392,16	-2,4653E-01
392,53	3,6751E-02
392,90	-1,9017E-01
393,27	2,1778E-02
393,63	4,3400E-02
394,00	-1,1471E-01
394,37	-2,9437E-01
394,74	-3,1246E-01
395,11	1,6030E-01
395,48	2,0746E-01
395,85	1,5994E-01
396,22	-1,8353E-01
396,58	-1,1186E-01
396,95	-1,5879E-01
397,32	-4,7627E-02
397,69	-1,2062E-01
398,06	-3,3347E-01
398,43	-2,7853E-01
398,80	-2,9751E-01
399,16	-1,0502E-01
399,53	-2,0249E-01
399,90	-2,5426E-01
400,27	-2,4115E-01
400,64	-1,2968E-02
401,01	2,5069E-01
401,37	2,9732E-01
401,74	2,0740E-01
402,11	-1,0631E-01
402,48	-3,7168E-01
402,85	-5,2499E-01
403,22	-3,9439E-01
403,58	-3,0471E-02
403,95	1,8127E-02
404,32	4,7919E-02
404,69	-1,8334E-01
405,06	4,1373E-02
405,42	-2,1032E-01
405,79	1,8058E-01
406,16	1,2688E-01
406,53	5,1844E-01
406,89	3,0730E-01
407,26	2,7622E-01
407,63	3,3170E-01
408,00	4,4687E-01
408,37	3,8642E-01
408,73	2,0025E-01
409,10	1,6678E-01
409,47	3,6376E-01
409,84	4,0279E-01
410,20	3,0664E-01
410,57	4,2063E-02
410,94	8,3615E-02
411,31	2,0643E-02
411,67	1,0412E-01
412,04	1,8023E-01
412,41	2,1641E-01
412,77	3,2529E-01
413,14	3,0665E-01
413,51	4,2109E-01
413,88	2,6722E-01
414,24	2,3492E-01
414,61	1,9513E-01
414,98	5,1455E-01
415,34	5,5465E-01
415,71	6,8346E-01
416,08	6,3625E-01
416,45	6,9327E-01
416,81	6,1025E-01
417,18	5,3465E-01
417,55	4,4713E-01
417,91	3,5979E-01
418,28	4,7968E-01
418,65	5,2754E-01
419,01	6,9838E-01
419,38	5,2448E-01
419,75	6,3550E-01
420,11	7,4835E-01
420,48	9,1121E-01
420,85	9,5219E-01
421,21	1,1365E00
421,58	1,2138E00
421,95	1,4536E00
422,31	1,5382E00
422,68	1,6522E00
423,05	1,6401E00
423,41	1,5443E00
423,78	1,7334E00
424,15	1,7884E00
424,51	2,0056E00
424,88	2,0153E00
425,24	2,1074E00
425,61	2,3158E00
425,98	2,5378E00
426,34	2,7302E00
426,71	2,6186E00
427,07	2,8776E00
427,44	3,4143E00
427,81	3,9278E00
428,17	4,1188E00
428,54	4,1368E00
428,90	4,4062E00
429,27	4,6795E00
429,64	4,9032E00
430,00	5,4707E00
430,37	5,9295E00
430,73	6,4418E00
431,10	6,8602E00
431,46	7,5314E00
431,83	8,2870E00
432,20	8,9487E00
432,56	9,8143E00
432,93	1,1071E01
433,29	1,2054E01
433,66	1,2984E01
434,02	1,3665E01
434,39	1,4640E01
434,75	1,5568E01
435,12	1,6612E01
435,49	1,7694E01
435,85	1,9095E01
436,22	2,0435E01
436,58	2,1453E01
436,95	2,2290E01
437,31	2,3334E01
437,68	2,4749E01
438,04	2,6372E01
438,41	2,7664E01
438,77	2,9335E01
439,14	3,0728E01
439,50	3,2448E01
439,87	3,3919E01
440,23	3,5532E01
440,60	3,6926E01
440,96	3,8099E01
441,33	3,9129E01
441,69	4,0366E01
442,06	4,1866E01
442,42	4,3641E01
442,78	4,5102E01
443,15	4,6636E01
443,51	4,7964E01
443,88	4,9545E01
444,24	5,1417E01
444,61	5,3043E01
444,97	5,4211E01
445,34	5,5317E01
445,70	5,6524E01
446,07	5,8682E01
446,43	6,0162E01
446,79	6,1760E01
447,16	6,2778E01
447,52	6,3624E01
447,89	6,4748E01
448,25	6,6210E01
448,62	6,8173E01
448,98	6,9803E01
449,34	7,0380E01
449,71	7,0677E01
450,07	7,1144E01
450,44	7,1965E01
450,80	7,2694E01
451,16	7,3301E01
451,53	7,3776E01
451,89	7,3892E01
452,25	7,3545E01
452,62	7,2206E01
452,98	7,0584E01
453,35	6,8411E01
453,71	6,7196E01
454,07	6,6283E01
454,44	6,4934E01
454,80	6,3469E01
455,16	6,1138E01
455,53	5,9408E01
455,89	5,7342E01
456,25	5,5616E01
456,62	5,3311E01
456,98	5,1446E01
457,34	4,9099E01
457,71	4,6972E01
458,07	4,4659E01
458,43	4,2886E01
458,80	4,1190E01
459,16	3,9368E01
459,52	3,7770E01
459,89	3,5986E01
460,25	3,4339E01
460,61	3,2788E01
460,98	3,1472E01
461,34	3,0299E01
461,70	2,9041E01
462,07	2,7589E01
462,43	2,6280E01
462,79	2,5088E01
463,15	2,4164E01
463,52	2,3082E01
463,88	2,1977E01
464,24	2,1144E01
464,61	2,0464E01
464,97	1,9874E01
465,33	1,9220E01
465,69	1,8436E01
466,06	1,7608E01
466,42	1,6803E01
466,78	1,6116E01
467,14	1,5579E01
467,51	1,5112E01
467,87	1,4626E01
468,23	1,3977E01
468,59	1,3269E01
468,95	1,2700E01
469,32	1,2075E01
469,68	1,1672E01
470,04	1,1160E01
470,40	1,0759E01
470,77	1,0274E01
471,13	9,9002E00
471,49	9,4332E00
471,85	9,0714E00
472,21	8,5764E00
472,58	8,2671E00
472,94	7,8479E00
473,30	7,5226E00
473,66	7,1506E00
474,02	6,7879E00
474,39	6,4982E00
474,75	6,1647E00
475,11	5,7941E00
475,47	5,4225E00
475,83	5,1705E00
476,19	4,8385E00
476,56	4,4556E00
476,92	4,0979E00
477,28	3,9844E00
477,64	3,8580E00
478,00	3,6230E00
478,36	3,4109E00
478,72	3,2469E00
479,09	3,1658E00
479,45	3,0147E00
479,81	2,9787E00
480,17	2,8556E00
480,53	2,8096E00
480,89	2,6522E00
481,25	2,4819E00
481,61	2,3597E00
481,97	2,0945E00
482,34	1,9941E00
482,70	1,8227E00
483,06	1,8693E00
483,42	1,7674E00
483,78	1,7211E00
484,14	1,6224E00
484,50	1,5898E00
484,86	1,5043E00
485,22	1,4135E00
485,58	1,3879E00
485,94	1,2752E00
486,31	1,3019E00
486,67	1,2071E00
487,03	1,2055E00
487,39	1,1655E00
487,75	1,0864E00
488,11	9,5735E-01
488,47	8,5521E-01
488,83	8,8940E-01
489,19	8,4767E-01
489,55	7,7745E-01
489,91	7,0392E-01
490,27	7,1549E-01
490,63	6,5277E-01
490,99	6,0916E-01
491,35	5,5999E-01
491,71	5,2964E-01
492,07	4,3026E-01
492,43	3,9769E-01
492,79	3,6542E-01
493,15	3,4136E-01
493,51	2,7823E-01
493,87	2,4642E-01
494,23	2,4049E-01
494,59	2,8604E-01
494,95	3,1438E-01
495,31	3,1452E-01
495,67	2,8606E-01
496,03	1,7250E-01
496,39	1,5026E-01
496,75	1,2188E-01
497,11	1,8515E-01
497,47	1,5710E-01
497,83	1,9364E-01
498,19	1,7656E-01
498,55	1,6862E-01
498,91	1,9050E-01
499,27	1,8652E-01
499,63	2,2511E-01
499,98	1,5555E-01
500,34	1,8553E-01
500,70	2,0227E-01
501,06	2,0306E-01
501,42	1,1556E-01
501,78	3,8859E-02
502,14	1,7195E-02
502,50	4,9905E-02
502,86	6,2479E-02
503,22	7,6304E-02
503,58	-1,1294E-02
503,94	-3,3803E-02
504,29	-8,0149E-02
504,65	-8,2776E-02
505,01	-1,1619E-01
505,37	-5,4462E-02
505,73	-5,5742E-03
506,09	-9,7505E-03
506,45	-5,8378E-02
506,81	-3,7373E-02
507,16	1,1030E-02
507,52	1,9282E-02
507,88	5,1011E-02
508,24	9,6477E-02
508,60	7,8450E-02
508,96	2,6065E-02
509,32	-4,2430E-02
509,67	-2,4576E-02
510,03	-5,8732E-02
510,39	-1,0486E-01
510,75	-1,1031E-01
511,11	-7,3410E-02
511,47	2,8574E-02
511,82	2,0396E-02
512,18	3,8092E-02
512,54	3,8128E-02
512,90	5,3151E-02
513,26	9,5387E-03
513,61	1,3605E-02
513,97	-3,9431E-02
514,33	-1,0880E-02
514,69	-3,2707E-02
515,05	-3,2727E-02
515,40	4,0821E-03
515,76	-6,8062E-03
516,12	4,9033E-02
516,48	-1,0943E-02
516,83	-6,8283E-03
517,19	-2,0511E-02
517,55	3,6930E-02
517,91	-8,2193E-03
518,26	-2,3284E-02
518,62	-3,9666E-02
518,98	-3,1520E-02
519,34	8,2052E-03
519,69	2,8708E-02
520,05	3,5559E-02
520,41	-2,3272E-02
520,77	-4,2490E-02
521,12	-5,2072E-02
521,48	4,1094E-03
521,84	-3,6965E-02
522,19	-1,7758E-02
522,55	-6,7072E-02
522,91	-1,9148E-02
523,27	5,3466E-02
523,62	1,2488E-01
523,98	1,0845E-01
524,34	8,1204E-02
524,69	3,3117E-02
525,05	1,7998E-02
525,41	-1,3795E-02
525,76	-4,1171E-03
526,12	7,1229E-02
526,48	3,7066E-02
526,83	4,9314E-02
527,19	-9,5722E-03
527,55	3,8087E-02
527,90	6,2773E-02
528,26	8,2034E-03
528,62	1,7766E-02
528,97	-9,5352E-03
529,33	3,1215E-02
529,69	4,0780E-02
530,04	-1,6317E-02
530,40	-7,7342E-02
530,76	-1,2189E-01
531,11	-3,9196E-02
531,47	1,4906E-02
531,82	-6,7710E-03
532,18	-6,6361E-02
532,54	-7,1439E-02
532,89	-9,0161E-02
533,25	-7,7854E-02
533,60	-6,0593E-02
533,96	-5,6391E-02
534,32	-4,9698E-02
534,67	-8,0421E-03
535,03	5,2476E-02
535,38	2,0138E-02
535,74	-4,0168E-03
536,10	-3,5929E-02
536,45	2,3975E-02
536,81	-1,4616E-02
537,16	1,1966E-02
537,52	-1,3284E-03
537,87	2,6543E-03
538,23	-1,9823E-02
538,58	-5,5341E-02
538,94	-2,6330E-02
539,30	-7,8988E-03
539,65	6,5646E-03
540,01	2,3610E-02
540,36	3,4010E-02
540,72	8,3470E-02
541,07	2,9906E-02
541,43	1,9530E-02
541,78	-4,4158E-02
542,14	2,4627E-02
542,49	1,1632E-02
542,85	1,8103E-02
543,20	5,1800E-03
543,56	-7,7620E-03
543,91	3,8755E-03
544,27	-2,1862E-02
544,62	6,4306E-03
544,98	-3,7239E-02
545,33	-3,4647E-02
545,69	-5,3718E-02
546,04	3,9622E-02
546,40	6,3819E-03
546,75	4,7158E-02
547,10	-3,8161E-03
547,46	3,1821E-02
547,81	-5,0905E-03
548,17	5,0900E-03
548,52	-2,5396E-03
548,88	-8,8731E-03
549,23	-2,1514E-02
549,59	-1,0120E-02
549,94	-1,2649E-02
550,29	-1,1378E-02
550,65	-3,2827E-02
551,00	-6,3059E-03
551,36	-2,5212E-02
551,71	7,5617E-03
552,06	-2,5216E-03
552,42	8,7000E-02
552,77	7,1807E-02
553,13	7,6837E-02
553,48	2,5245E-03
553,83	2,5297E-03
554,19	3,9181E-02
554,54	6,1863E-02
554,90	3,9103E-02
555,25	-1,6446E-02
555,60	-3,5440E-02
555,96	-2,9145E-02
556,31	-8,1085E-02
556,66	-1,2433E-01
557,02	-1,0802E-01
557,37	-7,5216E-02
557,72	-2,1708E-02
558,08	-1,4062E-02
558,43	-3,8337E-03
558,79	2,9444E-02
559,14	3,0749E-02
559,49	6,5434E-02
559,85	2,6971E-02
560,20	9,0142E-03
560,55	-4,1282E-02
560,90	-5,8192E-02
561,26	-5,5695E-02
561,61	-4,6720E-02
561,96	2,9913E-02
562,32	1,6955E-02
562,67	8,3634E-02
563,02	3,2738E-02
563,38	3,4079E-02
563,73	4,0796E-02
564,08	5,5459E-02
564,43	5,4330E-02
564,79	2,9169E-02
565,14	2,5207E-02
565,49	9,4257E-02
565,84	9,8519E-02
566,20	8,9423E-02
566,55	1,6105E-02
566,90	6,8674E-02
567,25	8,7688E-02
567,61	1,2559E-01
567,96	1,3256E-01
568,31	9,7393E-02
568,66	5,0228E-02
569,02	-3,6776E-02
569,37	-4,7989E-02
569,72	-2,7391E-03
570,07	2,7422E-03
570,42	4,6711E-02
570,78	2,6215E-02
571,13	8,4277E-02
571,48	3,4650E-02
571,83	6,3797E-02
572,18	4,4504E-02
572,54	6,4054E-02
572,89	-1,8122E-02
573,24	-7,1057E-02
573,59	-1,0005E-01
573,94	-9,0336E-02
574,30	-8,3456E-02
574,65	-4,5990E-02
575,00	-2,6515E-02
575,35	-4,8948E-02
575,70	-6,8471E-02
576,05	-5,0539E-02
576,40	-3,6578E-02
576,76	-4,3760E-02
577,11	-2,8174E-02
577,46	-1,8301E-02
577,81	2,9618E-02
578,16	2,8260E-03
578,51	-2,1207E-02
578,86	-3,2560E-02
579,21	-2,2693E-02
579,57	-2,8406E-03
579,92	1,5663E-02
580,27	1,4268E-02
580,62	2,2850E-02
580,97	-1,4245E-03
581,32	-3,4196E-02
581,67	-1,4258E-02
582,02	-2,8537E-02
582,37	7,1198E-03
582,72	-9,9816E-03
583,08	-2,2840E-02
583,43	-3,1553E-02
583,78	-6,1819E-02
584,13	-4,1696E-02
584,48	-7,4732E-02
584,83	-9,1976E-02
585,18	-9,4830E-02
585,53	-7,8906E-02
585,88	2,0116E-02
586,23	1,8721E-02
586,58	3,3115E-02
586,93	-4,3165E-02
587,28	-9,0581E-02
587,63	-5,7566E-02
587,98	-6,1808E-02
588,33	-2,3059E-02
588,68	-3,7427E-02
589,03	-7,3507E-02
589,38	-6,0439E-02
589,73	-6,4970E-02
590,08	3,6141E-02
590,43	8,3862E-02
590,78	6,0685E-02
591,13	4,7608E-02
591,48	5,9151E-02
591,83	1,3148E-01
592,18	1,2009E-01
592,53	9,7126E-02
592,88	1,0434E-01
593,23	8,2651E-02
593,58	4,2140E-02
593,93	2,4726E-02
594,28	8,4558E-02
594,63	1,0348E-01
594,98	4,9551E-02
595,33	-2,4782E-02
595,68	-9,4920E-02
596,02	-7,0399E-02
596,37	-5,1370E-02
596,72	1,6154E-02
597,07	-1,3227E-02
597,42	-1,9123E-02
597,77	-3,9812E-02
598,12	-2,8092E-02
598,47	-4,4417E-02
598,82	-4,8839E-02
599,17	1,7771E-02
599,52	5,9418E-02
599,86	2,9806E-02
600,21	-1,6414E-02
600,56	-2,9899E-02
600,91	-2,2454E-02
601,26	-3,3007E-02
601,61	-8,7095E-02
601,96	-6,6152E-02
602,30	-3,7595E-02
602,65	2,8660E-02
603,00	5,7503E-02
603,35	2,2767E-02
603,70	2,2816E-02
604,05	-4,5766E-03
604,40	-3,9736E-02
604,74	-5,8182E-02
605,09	-1,9957E-02
605,44	4,3101E-02
605,79	-3,0864E-03
606,14	-3,5522E-02
606,48	-7,5866E-02
606,83	-3,7276E-02
607,18	-5,3019E-02
607,53	-5,3143E-02
607,88	-5,1691E-02
608,22	-5,3326E-02
608,57	-5,9855E-02
608,92	-5,3726E-02
609,27	-6,8224E-02
609,62	-1,1917E-01
609,96	-1,2111E-01
610,31	-1,0395E-01
610,66	-3,2081E-03
611,01	-1,6086E-03
611,35	6,7737E-02
611,70	5,5025E-02
612,05	9,8959E-02
612,40	9,2683E-02
612,74	6,5221E-02
613,09	2,6175E-02
613,44	-4,9161E-03
613,79	-2,3024E-02
614,13	-3,4548E-02
614,48	-1,0399E-01
614,83	-6,9494E-02
615,17	-2,6588E-02
615,52	8,3376E-02
615,87	8,8515E-02
616,22	8,5434E-02
616,56	7,8972E-02
616,91	8,0895E-02
617,26	3,0387E-02
617,60	-1,8593E-02
617,95	-2,5443E-02
618,30	5,1028E-02
618,64	7,1601E-02
618,99	-1,3666E-02
619,34	-6,5041E-02
619,68	-1,0128E-01
620,03	-2,9204E-02
620,38	-2,2366E-02
620,72	-3,4493E-03
621,07	3,4606E-03
621,42	1,7335E-02
621,76	-1,2156E-02
622,11	-8,7035E-03
622,45	-4,5440E-02
622,80	-2,4557E-02
623,15	-2,4620E-02
623,49	-6,1749E-02
623,84	-3,1820E-02
624,18	-8,4968E-02
624,53	-1,5939E-02
624,88	-4,4378E-02
625,22	0,0000E00
625,57	-1,7807E-02
625,91	6,2388E-02
626,26	1,6637E-01
626,61	1,4520E-01
626,95	6,8327E-02
627,30	-1,6210E-02
627,64	-2,5304E-02
627,99	4,5200E-02
628,33	4,3499E-02
628,68	0,0000E00
629,03	-6,7363E-02
629,37	-4,1989E-02
629,72	7,6714E-02
630,06	1,1904E-01
630,41	9,5509E-02
630,75	5,5255E-02
631,10	2,7695E-02
631,44	4,0691E-02
631,79	-2,0403E-02
632,13	-1,0401E-01
632,48	-1,8046E-01
632,82	-9,3338E-02
633,17	1,8704E-03
633,51	1,4992E-02
633,86	-8,4296E-02
634,20	-1,7062E-01
634,55	-1,0521E-01
634,89	5,6415E-03
635,24	6,2191E-02
635,58	3,2116E-02
635,93	-3,0276E-02
636,27	-4,1722E-02
636,62	-1,1366E-01
636,96	-9,4996E-02
637,30	-2,8551E-02
637,65	3,8163E-02
637,99	1,9101E-02
638,34	-1,0525E-01
638,68	-1,2262E-01
639,03	-9,4060E-02
639,37	-2,6911E-02
639,71	7,7091E-03
640,06	-8,3066E-02
640,40	-1,3154E-01
640,75	-1,3170E-01
641,09	1,9389E-02
641,44	5,6290E-02
641,78	1,4013E-01
642,12	7,4073E-02
642,47	1,2696E-01
642,81	1,7622E-02
643,15	5,2948E-02
643,50	-9,8288E-03
643,84	4,5248E-02
644,19	-5,1301E-02
644,53	1,9745E-03
644,87	-1,9794E-03
645,22	9,1156E-02
645,56	-3,9782E-03
645,90	-3,1881E-02
646,25	-7,1885E-02
646,59	3,0012E-02
646,93	9,6202E-02
647,28	1,1038E-01
647,62	1,1261E-01
647,96	2,8222E-02
648,31	3,0335E-02
648,65	-6,4759E-02
648,99	-4,8693E-02
649,34	-3,2505E-02
649,68	6,3135E-02
650,02	8,5658E-02
650,36	7,5538E-02
650,71	4,0877E-02
651,05	4,0945E-02
651,39	6,1633E-03
651,74	-1,4434E-02
652,08	-2,6854E-02
652,42	4,1435E-03
652,76	1,4104E-01
653,11	1,2478E-01
653,45	6,0493E-02
653,79	-8,1601E-02
654,13	-1,4473E-01
654,48	-6,5147E-02
654,82	-5,0586E-02
655,16	5,4981E-02
655,50	-3,6038E-02
655,85	2,1222E-03
656,19	-2,1262E-03
656,53	5,7543E-02
656,87	2,9883E-02
657,21	-2,9933E-02
657,56	-6,2059E-02
657,90	-8,8055E-02
658,24	-5,8034E-02
658,58	-7,3249E-02
658,92	-7,1166E-02
659,27	-1,2987E-01
659,61	-9,1030E-02
659,95	-1,1088E-01
660,29	0,0000E00
660,63	2,1825E-02
660,97	7,2233E-02
661,32	5,0516E-02
661,66	4,1867E-02
662,00	1,7671E-02
662,34	-5,3163E-02
662,68	-2,2217E-03
663,02	-1,0015E-01
663,37	-4,4614E-02
663,71	-8,0489E-02
664,05	4,4913E-02
664,39	1,5773E-02
664,73	2,0339E-02
665,07	-4,5304E-03
665,41	4,5361E-02
665,75	9,7905E-02
666,09	1,2106E-01
666,44	8,7153E-02
666,78	2,7583E-02
667,12	1,6128E-02
667,46	7,6290E-02
667,80	7,4248E-02
668,14	1,3272E-01
668,48	1,0034E-01
668,82	1,4742E-01
669,16	1,1726E-01
669,50	7,5294E-02
669,84	2,3585E-03
670,18	-4,7354E-03
670,52	5,4625E-02
670,86	5,4841E-02
671,20	1,9115E-02
671,54	-1,4408E-02
671,88	6,4913E-02
672,22	4,5925E-02
672,57	7,7398E-02
672,91	1,0453E-01
673,25	1,2411E-01
673,59	7,8227E-02
673,93	-8,0847E-02
674,27	-4,6795E-02
674,61	0,0000E00
674,95	8,6658E-02
675,28	1,0911E-01
675,62	2,7385E-02
675,96	-5,2385E-02
676,30	-6,7565E-02
676,64	-1,1040E-01
676,98	-9,8312E-02
677,32	-1,4702E-01
677,66	-8,3896E-02
678,00	-2,0354E-02
678,34	-6,6164E-02
678,68	-5,1100E-03
679,02	-2,0532E-02
679,36	6,1840E-02
679,70	8,5296E-02
680,04	6,7364E-02
680,38	8,0566E-02
680,72	2,8695E-02
681,06	1,0473E-02
681,39	1,5738E-02
681,73	-3,6799E-02
682,07	-5,8041E-02
682,41	-1,2993E-01
682,75	-8,4885E-02
683,09	-5,8582E-02
683,43	-4,8039E-02
683,77	-1,0202E-01
684,11	-1,7473E-01
684,44	-2,1000E-01
684,78	-1,7830E-01
685,12	-8,4010E-02
685,46	-7,0735E-02
685,80	-1,6646E-01
686,14	-1,9707E-01
686,48	-1,9508E-01
686,81	-8,8075E-02
687,15	-1,2985E-01
687,49	-2,2951E-01
687,83	-2,0025E-01
688,17	-8,3584E-02
688,51	5,0436E-02
688,84	-1,1778E-01
689,18	-2,3673E-01
689,52	-3,0207E-01
689,86	-2,7775E-01
690,20	-2,4168E-01
690,53	-1,7644E-01
690,87	-7,7087E-02
691,21	5,1542E-02
691,55	2,3347E-01
691,88	2,8073E-01
692,22	1,6504E-01
692,56	-3,4727E-02
692,90	-1,3308E-01
693,23	-9,5616E-02
693,57	-1,7722E-01
693,91	-1,4869E-01
694,25	-2,0203E-01
694,58	-2,0579E-02
694,92	1,0893E-01
695,26	2,0706E-01
695,60	9,7825E-02
695,93	2,3765E-02
696,27	-9,2249E-02
696,61	-5,9755E-03
696,94	4,1949E-02
697,28	6,6035E-02
697,62	4,2100E-02
697,96	3,3089E-02
698,29	1,8385E-01
698,63	2,4426E-01
698,97	8,7783E-02
699,30	-9,7064E-02
699,64	-1,9146E-01
699,98	-9,4387E-02
700,31	-3,9569E-02
700,65	-3,6640E-02
700,99	-9,4970E-02
701,32	-4,3032E-02
701,66	-1,2311E-02
702,00	7,7019E-02
702,33	5,8704E-02
702,67	3,1040E-02
703,00	-5,2914E-02
703,34	-6,8650E-02
703,68	-9,6940E-02
704,01	-5,6627E-02
704,35	-3,1504E-03
704,69	3,1487E-02
705,02	1,8845E-02
705,36	3,1494E-02
705,69	5,3683E-02
706,03	8,5634E-02
706,36	7,2966E-02
706,70	2,5377E-02
707,04	0,0000E00
707,37	-7,9520E-02
707,71	-6,0652E-02
708,04	-1,1214E-01
708,38	-5,7710E-02
708,71	-9,6391E-03
709,05	1,9318E-02
709,39	-1,1623E-01
709,72	-1,9080E-01
710,06	-1,3952E-01
710,39	-7,4785E-02
710,73	-1,4037E-01
711,06	-9,1332E-02
711,40	6,2202E-02
711,73	3,1413E-01
712,07	2,1328E-01
712,40	8,8607E-02
712,74	-1,1836E-01
713,07	-1,0869E-01
713,41	-1,2545E-01
713,74	-8,2895E-02
714,08	-5,6550E-02
714,41	4,0080E-02
714,75	1,6701E-02
715,08	6,0188E-02
715,42	1,0381E-01
715,75	2,3512E-01
716,08	1,8843E-01
716,42	1,1448E-01
716,75	-6,4189E-02
717,09	-9,4967E-02
717,42	-9,1803E-02
717,76	-4,7645E-02
718,09	-1,1596E-01
718,43	6,8318E-03
718,76	-6,5067E-02
719,09	7,5366E-02
719,43	3,7833E-02
719,76	7,9227E-02
720,10	5,8713E-02
720,43	-1,3481E-01
720,76	-1,7315E-02
721,10	-1,3190E-01
721,43	-9,0540E-02
721,76	2,0902E-02
722,10	1,2912E-01
722,43	9,7693E-02
722,77	-1,2964E-01
723,10	-1,7219E-01
723,43	-4,5841E-02
723,77	4,2376E-02
724,10	6,0098E-02
724,43	-2,1260E-02
724,77	-2,8457E-02
725,10	2,1380E-02
725,43	1,0366E-01
725,77	7,1605E-03
726,10	-8,9781E-02
726,43	-1,0437E-01
726,77	-1,8035E-02
727,10	1,2300E-01
727,43	1,0145E-01
727,77	-5,8110E-02
728,10	-2,0424E-01
728,43	-3,1480E-01
728,76	-6,2448E-02
729,10	-2,9374E-02
729,43	1,1774E-01
729,76	-3,3179E-02
730,09	7,7753E-02
730,43	3,7135E-03
730,76	1,0428E-01
731,09	4,1016E-02
731,42	-1,4946E-02
731,76	-1,2004E-01
732,09	-2,0344E-01
732,42	-2,2692E-01
732,75	-2,8015E-01
733,09	-1,7488E-01
733,42	-1,0679E-01
733,75	-5,3718E-02
734,08	-4,9964E-02
734,41	-7,3109E-02
734,75	2,6959E-02
735,08	-2,3190E-02
735,41	-5,0471E-02
735,74	-3,5084E-02
736,07	3,5184E-02
736,41	-1,1784E-02
736,74	-4,7244E-02
737,07	-1,1454E-01
737,40	-3,5551E-02
737,73	-1,3482E-01
738,06	-9,1393E-02
738,40	-1,7935E-01
738,73	-4,3968E-02
739,06	-4,4211E-02
739,39	3,2253E-02
739,72	-1,0911E-01
740,05	-1,3380E-01
740,38	-4,4889E-02
740,72	-4,5060E-02
741,05	-2,8725E-02
741,38	-2,4709E-02
741,71	1,3651E-01
742,04	3,1183E-01
742,37	3,2499E-01
742,70	3,4711E-01
743,03	2,1400E-01
743,36	1,8517E-01
743,69	6,7629E-02
744,02	-1,3137E-01
744,36	-1,2768E-01
744,69	-6,3889E-02
745,02	1,4538E-01
745,35	1,7176E-01
745,68	1,9855E-01
746,01	1,2978E-02
746,34	-5,6500E-02
746,67	-1,5266E-01
747,00	4,3858E-02
747,33	-1,0110E-01
747,66	-3,5294E-02
747,99	-2,4774E-01
748,32	-2,1777E-01
748,65	-1,3821E-01
748,98	0,0000E00
749,31	2,0224E-01
749,64	1,0368E-01
749,97	5,4304E-02
750,30	-4,0894E-02
750,63	-8,6728E-02
750,96	-1,8316E-02
751,29	-2,2934E-02
751,62	-9,2174E-03
751,95	-6,4779E-02
752,28	-9,2938E-03
752,61	-4,6630E-03
752,94	9,3575E-02
753,27	1,0819E-01
753,60	2,3579E-02
753,92	-6,1599E-02
754,25	-2,0901E-01
754,58	2,3875E-02
754,91	7,6630E-02
755,24	1,2494E-01
755,57	-7,7046E-02
755,90	-6,2873E-02
756,23	-1,4566E-01
756,56	-1,5129E-01
756,89	-2,8377E-01
757,22	-1,9649E-01
757,54	-2,4174E-01
757,87	-2,0783E-01
758,20	-1,5897E-01
758,53	-1,3942E-01
758,86	-1,3528E-01
759,19	-1,1563E-01
759,52	-1,2628E-01
759,84	6,0800E-02
760,17	1,4746E-01
760,50	2,1953E-01
760,83	2,0703E-01
761,16	6,7719E-02
761,49	1,5677E-02
761,81	-1,8736E-01
762,14	-6,2646E-02
762,47	2,0436E-01
762,80	4,6742E-01
763,13	3,9036E-01
763,45	2,1764E-01
763,78	2,1289E-02
764,11	4,2695E-02
764,44	1,4942E-01
764,77	2,2003E-01
765,09	3,0118E-01
765,42	8,6655E-02
765,75	2,2244E-01
766,08	1,9636E-01
766,40	4,3721E-01
766,73	2,3056E-01
767,06	2,8690E-01
767,39	3,8188E-01
767,71	2,7265E-01
768,04	1,6731E-02
768,37	-3,7556E-01
768,70	-8,4303E-02
769,02	1,0715E-01
769,35	2,9401E-01
769,68	6,8079E-02
770,00	-2,2742E-02
770,33	-2,1118E-01
770,66	-1,6066E-01
770,99	-3,7511E-01
771,31	-2,6667E-01
771,64	-1,8627E-01
771,97	9,9236E-02
772,29	2,5197E-01
772,62	3,3513E-01
772,95	2,2470E-01
773,27	2,2568E-01
773,60	1,1881E-02
773,93	1,1283E-01
774,25	5,3595E-02
774,58	1,9727E-01
774,90	1,5046E-01
775,23	7,2494E-02
775,56	1,8218E-01
775,88	1,6458E-01
776,21	2,1382E-01
776,54	9,1945E-02
776,86	0,0000E00
777,19	6,1709E-02
777,51	-9,2814E-02
777,84	3,1113E-01
778,16	3,3766E-01
778,49	5,9127E-01
778,82	3,0901E-01
779,14	3,2798E-01
779,47	2,9099E-01
779,79	3,3087E-01
780,12	1,7922E-01
780,44	-2,6339E-01
780,77	-5,5388E-01
781,10	-7,1115E-01
781,42	-5,5297E-01
781,75	-2,8781E-01
782,07	-2,7599E-01
782,40	-3,9495E-02
782,72	-1,0582E-01
783,05	6,6374E-03
783,37	-1,6006E-01
783,70	-3,1348E-01
784,02	-2,8089E-01
784,35	-4,9670E-01
784,67	-2,7716E-01
785,00	-3,3377E-01
785,32	-2,0529E-02
785,65	-9,5852E-02
785,97	-2,1972E-01
786,30	-1,5115E-01
786,62	-3,0461E-01
786,94	-1,5251E-01
787,27	-4,1854E-01
787,59	6,9641E-03
787,92	-1,3944E-02
788,24	3,0004E-01
788,57	1,1915E-01
788,89	4,0729E-01
789,22	1,1947E-01
789,54	7,0185E-02
789,86	-2,5332E-01
790,19	1,0553E-01
790,51	2,1133E-01
790,84	5,0003E-01
791,16	4,3761E-01
791,48	5,0892E-01
791,81	3,7453E-01
792,13	1,3446E-01
792,45	7,7883E-02
792,78	-7,0805E-02
793,10	-5,6623E-02
793,43	-1,4863E-01
793,75	-3,5496E-02
794,07	1,7706E-01
794,40	1,2723E-01
794,72	2,5376E-01
795,04	0,0000E00
795,37	-4,9522E-02
795,69	-1,7671E-01
796,01	-1,4840E-01
796,34	-7,0343E-03
796,66	-6,2994E-02
796,98	-3,4917E-02
797,30	-1,4651E-01
797,63	-1,1871E-01
797,95	-2,5828E-01
798,27	-4,1709E-02
798,60	-2,2306E-01
798,92	1,2544E-01
799,24	-1,1893E-01
799,56	-1,2577E-01
799,89	-4,4034E-01
800,21	-5,5131E-01
800,53	-1,9515E-01
800,85	-4,8801E-02
801,18	8,3745E-02
801,50	2,0946E-02
801,82	6,2853E-02
802,14	3,9811E-01
802,47	5,1728E-01
802,79	6,7175E-01
803,11	4,6749E-01
803,43	3,8395E-01
803,75	4,1807E-02
804,08	-2,0296E-01
804,40	-5,1015E-01
804,72	-5,3149E-01
805,04	-2,9468E-01
805,36	-2,6742E-01
805,69	3,5323E-02
806,01	-3,0362E-01
806,33	3,5492E-02
806,65	-2,1323E-01
806,97	-3,5619E-02
807,29	-2,4206E-01
807,62	-2,1415E-01
807,94	-2,4323E-01
808,26	-2,1538E-02
808,58	1,9419E-01
808,90	3,3901E-01
809,22	2,8887E-02
809,54	-3,5461E-01
809,86	-4,4197E-01
810,18	-5,0065E-01
810,51	-2,4769E-01
810,83	-2,7028E-01
811,15	-1,5380E-01
811,47	-2,2713E-01
811,79	-5,8744E-02
812,11	-2,1650E-15
812,43	1,4070E-01
812,75	1,5593E-01
813,07	3,4206E-01
813,39	3,2772E-01
813,71	5,3736E-01
814,03	3,1407E-01
814,35	4,7208E-01
814,67	2,4807E-01
814,99	3,3158E-01
815,31	5,2911E-02
815,64	-1,1354E-01
815,96	-2,6532E-01
816,28	-1,6733E-01
816,60	-1,2205E-01
816,92	7,6688E-02
817,24	9,9891E-02
817,56	2,7007E-01
817,88	3,0164E-01
818,19	2,1748E-01
818,51	1,2456E-01
818,83	-1,7175E-01
819,15	-1,5650E-01
819,47	-1,9641E-01
819,79	-3,9419E-02
820,11	-1,1080E-01
820,43	-1,5091E-01
820,75	-3,3407E-01
821,07	-2,7902E-01
821,39	-4,5525E-01
821,71	-3,1307E-01
822,03	-1,8540E-01
822,35	-2,4244E-02
822,67	7,2904E-02
822,99	-1,6227E-01
823,31	-1,6290E-02
823,62	1,0634E-01
823,94	2,2217E-01
824,26	2,8092E-01
824,58	2,4042E-01
824,90	2,1610E-01
825,22	5,8437E-02
825,54	-5,0260E-02
825,86	-3,3627E-02
826,17	2,0207E-01
826,49	2,7029E-01
826,81	4,4931E-01
827,13	3,6592E-01
827,45	3,5004E-01
827,77	8,5645E-02
828,08	-3,0941E-01
828,40	-3,1940E-01
828,72	-2,9440E-01
829,04	6,0937E-02
829,36	3,5790E-01
829,67	5,9615E-01
829,99	5,7234E-01
830,31	2,6553E-02
830,63	-1,4223E-01
830,95	-1,6938E-01
831,26	-2,4099E-01
831,58	-5,9119E-01
831,90	-1,0601E00
832,22	-6,6904E-01
832,53	-5,1726E-01
832,85	-1,2777E-01
833,17	-3,0249E-01
833,49	-1,6603E-01
833,80	-8,3397E-02
834,12	-6,1381E-01
834,44	-3,1691E-01
834,76	-7,1135E-01
835,07	-1,8783E-01
835,39	-4,9867E-01
835,71	-1,3181E-01
836,02	-7,5519E-02
836,34	2,0824E-01
836,66	4,1739E-01
836,97	1,8986E-01
837,29	-3,1493E-01
837,61	-5,1722E-01
837,93	-3,7497E-01
838,24	-2,9878E-01
838,56	-4,2634E-01
838,88	-3,4059E-01
839,19	-1,5644E-01
839,51	-2,0626E-01
839,82	-1,6799E-01
840,14	1,9821E-02
840,46	2,5821E-01
840,77	3,7839E-01
841,09	4,1931E-01
841,41	4,3048E-01
841,72	2,3102E-01
842,04	7,0545E-02
842,35	-1,3161E-01
842,67	-2,3334E-01
842,99	-7,1380E-02
843,30	2,1499E-01
843,62	7,2129E-02
843,93	3,0348E-15
844,25	-6,2266E-02
844,56	1,7723E-01
844,88	3,8758E-01
845,20	4,1046E-01
845,51	4,6471E-01
845,83	-5,3005E-02
846,14	-2,6548E-01
846,46	-3,7221E-01
846,77	7,4918E-02
847,09	4,4144E-01
847,40	4,2309E-01
847,72	1,7403E-01
848,03	8,7316E-02
848,35	4,3808E-01
848,66	5,1631E-01
848,98	3,1934E-01
849,29	9,9366E-02
849,61	1,5511E-01
849,92	4,4572E-02
850,24	-1,3422E-01
850,55	-1,2356E-01
850,87	-2,0308E-01
851,18	1,5865E-01
851,50	1,0254E-01
851,81	-1,6022E-01
852,12	-4,8291E-01
852,44	-7,8619E-01
852,75	-6,0286E-01
853,07	-4,5384E-01
853,38	-2,1000E-01
853,70	-1,6394E-01
854,01	-5,5299E-01
854,32	-7,5784E-01
854,64	-5,2385E-01
854,95	1,0734E-01
855,27	-3,5815E-02
855,58	-1,3193E-01
855,89	-6,2701E-01
856,21	-4,8391E-01
856,52	-6,6803E-01
856,83	-5,1262E-01
857,15	-3,4380E-01
857,46	-5,6675E-01
857,77	-7,7850E-01
858,09	-6,6884E-01
858,40	-1,9910E-01
858,71	3,1329E-01
859,03	5,0443E-02
859,34	2,4033E-01
859,65	4,4380E-01
859,97	9,0411E-01
860,28	8,9715E-01
860,59	5,6738E-01
860,91	4,9197E-01
861,22	1,1683E-01
861,53	4,5566E-01
861,84	7,4523E-01
862,16	1,1587E00
862,47	8,5899E-01
862,78	1,8584E-01
863,10	5,3183E-02
863,41	-6,6776E-02
863,72	-4,0266E-01
864,03	-8,0998E-01
864,35	-8,5490E-01
864,66	-2,7253E-01
864,97	7,6569E-01
865,28	8,3754E-01
865,59	1,0207E00
865,91	3,4609E-01
866,22	3,3374E-01
866,53	5,5858E-02
866,84	5,6170E-02
867,15	-3,5232E-01
867,47	-6,3653E-01
867,78	-8,6751E-01
868,09	-4,4317E-01
868,40	-1,5769E-01
868,71	-7,2028E-01
869,02	-8,5298E-01
869,34	-6,5540E-01
869,65	3,2178E-01
869,96	4,2629E-01
870,27	3,0967E-01
870,58	2,6678E-01
870,89	8,3477E-01
871,20	1,5013E-01
871,52	3,1619E-01
871,83	-6,2016E-01
872,14	0,0000E00
872,45	-4,2713E-01
872,76	6,4398E-01
873,07	7,3943E-01
873,38	8,8333E-01
873,69	1,0908E-01
874,00	-3,7558E-01
874,31	-7,5540E-01
874,62	-1,4235E00
874,94	-1,5568E00
875,25	-1,7709E00
875,56	-1,4882E00
875,87	-1,1586E00
876,18	-4,5095E-01
876,49	3,7183E-01
876,80	5,5045E-01
877,11	-2,7675E-01
877,42	-5,8853E-01
877,73	-6,5654E-01
878,04	5,2701E-01
878,35	5,1156E-01
878,66	6,1328E-01
878,97	-1,1641E-01
879,28	-2,6720E-01
879,59	-3,3533E-02
879,90	5,2148E-01
880,21	2,8643E-01
880,52	-1,8550E-01
880,83	-5,0621E-02
881,14	1,3514E-01
881,45	2,8749E-01
881,76	2,3710E-01
882,07	8,6489E-01
882,37	8,8197E-01
882,68	6,9577E-01
882,99	2,5458E-01
883,30	4,0768E-01
883,61	2,5540E-01
883,92	5,1024E-01
884,23	3,4033E-01
884,54	1,5308E-01
884,85	1,5369E-01
885,16	8,0406E-01
885,47	6,8567E-01
885,77	3,9503E-01
886,08	-2,7493E-01
886,39	4,4608E-01
886,70	5,4854E-01
887,01	9,4115E-01
887,32	9,7530E-01
887,63	8,6780E-01
887,93	9,3680E-01
888,24	4,5982E-01
888,55	4,6243E-01
888,86	1,1974E-01
889,17	1,8845E-01
889,47	4,1063E-01
889,78	8,0547E-01
890,09	7,7182E-01
890,40	6,8650E-01
890,71	1,5469E-01
891,01	-1,7142E-02
891,32	-2,3982E-01
891,63	-2,9130E-01
891,94	-3,6042E-01
892,25	6,8700E-02
892,55	-3,6101E-01
892,86	-4,1243E-01
893,17	-1,0137E00
893,48	1,3710E-01
893,78	3,9435E-01
894,09	6,6907E-01
894,40	7,7491E-01
894,70	1,3949E00
895,01	1,8107E00
895,32	4,6485E-01
895,63	-6,3906E-01
895,93	-7,2581E-01
896,24	-2,2491E-01
896,55	2,0778E-01
896,85	-1,1247E00
897,16	-7,4362E-01
897,47	-1,0554E00
897,77	-6,4256E-01
898,08	-9,2495E-01
898,39	-7,8783E-01
898,69	-4,2171E-01
899,00	-5,6193E-01
899,31	-4,5818E-01
899,61	-5,4673E-01
899,92	-3,7130E-01
900,23	-2,8341E-01
900,53	-1,7740E-02
900,84	6,7711E-01
901,14	7,6442E-01
901,45	1,0147E00
901,76	-5,3439E-02
902,06	7,1566E-01
902,37	5,7412E-01
902,67	7,9333E-01
902,98	0,0000E00
903,29	9,0700E-02
903,59	9,6384E-01
903,90	1,0761E00
904,20	1,2833E00
904,51	6,9791E-01
904,81	5,3412E-01
905,12	8,8624E-01
905,42	1,8516E-02
905,73	4,4549E-01
906,03	-6,3351E-01
906,34	2,9954E-01
906,64	-9,3901E-02
906,95	7,9058E-01
907,25	1,0010E00
907,56	1,2532E00
907,86	1,0301E00
908,17	1,0932E00
908,47	3,2760E-01
908,78	-2,9065E-01
909,08	-1,1276E00
909,39	-4,3014E-01
909,69	-4,1299E-01
910,00	2,1753E-01
910,30	4,5760E-01
910,61	8,3680E-01
910,91	6,0055E-02
911,21	-8,6410E-01
911,52	-1,1960E00
911,82	-8,7481E-01
912,13	2,0366E-01
912,43	1,1248E00
912,74	8,0213E-01
913,04	1,4515E-01
913,34	-7,2854E-01
913,65	-2,0976E-01
913,95	-1,8945E-01
914,25	-3,5915E-01
914,56	-6,3548E-02
914,86	-1,0673E-01
915,17	-6,4545E-02
915,47	-6,5009E-02
915,77	-2,1776E-01
916,08	6,5738E-02
916,38	-9,4396E-01
916,68	-7,0508E-01
916,99	2,8670E-01
917,29	1,0665E00
917,59	7,1531E-01
917,90	-2,2487E-01
918,20	-4,0487E-01
918,50	-1,1519E00
918,80	-1,4988E00
919,11	-1,5338E00
919,41	-1,0361E00
919,71	-5,0828E-01
920,02	-3,7071E-01
920,32	6,9752E-02
920,62	-4,4537E-01
920,92	-5,2033E-01
921,23	-4,7622E-01
921,53	-9,5702E-02
921,83	-7,6955E-01
922,13	-1,6218E00
922,44	-2,4841E00
922,74	-1,6882E00
923,04	-7,6050E-01
923,34	-2,7091E-01
923,64	-1,5082E00
923,95	-1,9397E00
924,25	-8,2656E-01
924,55	5,0537E-01
924,85	7,3701E-01
925,15	-6,1159E-01
925,46	-5,3749E-01
925,76	4,6358E-01
926,06	1,8957E00
926,36	2,1115E00
926,66	2,0224E00
926,96	1,5322E00
927,26	9,8526E-01
927,57	1,1236E00
927,87	9,4096E-01
928,17	1,2708E00
928,47	4,8869E-01
928,77	1,6658E00
929,07	1,6483E00
929,37	8,8412E-01
929,67	-8,3553E-02
929,98	7,2701E-01
930,28	1,4120E00
930,58	1,0780E00
930,88	4,5831E-01
931,18	1,0943E00
931,48	1,5943E00
931,78	1,4567E00
932,08	8,7878E-02
932,38	-1,1212E00
932,68	-9,4979E-01
932,98	-1,2563E00
933,28	-1,5658E00
933,58	-2,2108E00
933,88	-1,2164E00
934,18	-4,2850E-01
934,48	1,8507E-01
934,78	2,4826E-01
935,08	1,2488E-01
935,38	-9,7261E-01
935,68	-9,1567E-01
935,98	-3,8137E-01
936,28	1,2166E00
936,58	1,3204E00
936,88	1,0350E00
937,18	2,6032E-01
937,48	-5,8933E-01
937,78	-1,0223E00
938,08	-3,3086E-02
938,38	1,2004E00
938,68	1,6738E00
938,98	6,7592E-01
939,28	9,1794E-01
939,57	1,0951E00
939,87	2,3048E00
940,17	1,9401E00
940,47	1,5702E00
940,77	-1,0541E00
941,07	-1,3073E00
941,37	-2,7035E00
941,67	-1,7891E00
941,97	-3,0648E00
942,26	-2,8671E00
942,56	-3,5452E00
942,86	-3,3398E00
943,16	-3,5468E00
943,46	-2,1947E00
943,76	-1,8719E00
944,06	-8,6495E-01
944,35	-8,7092E-01
944,65	-7,2426E-01
944,95	-1,1551E-01
945,25	5,0247E-01
945,55	1,3626E00
945,84	5,0821E-01
946,14	-1,8137E00
946,44	-2,9746E00
946,74	-3,3573E00
947,03	-1,0862E00
947,33	-1,0143E00
947,63	1,6322E00
947,93	1,9693E00
948,23	4,5307E00
948,52	2,3279E00
948,82	2,8109E00
949,12	1,0155E00
949,41	1,0661E00
949,71	-1,4141E00
950,01	-8,2087E-01
950,31	-2,3865E00
950,60	-1,1814E00
950,90	-1,7196E00
951,20	8,8863E-01
951,49	8,0438E-01
951,79	5,3853E-01
952,09	-1,8070E-01
952,38	-6,3743E-01
952,68	1,2411E00
952,98	1,2041E00
953,27	1,3663E-14
953,57	-2,2928E00
953,87	-8,4793E-01
954,16	-1,2355E00
954,46	-1,1966E00
954,76	-3,6105E00
955,05	-9,6965E-02
955,35	2,4437E-01
955,64	2,2153E00
955,94	2,4802E-01
956,24	3,9844E-01
956,53	4,0106E-01
956,83	-9,0592E-01
957,12	-7,6203E-01
957,42	-3,0697E-01
957,72	1,3400E00
958,01	1,0366E00
958,31	-7,3072E-01
958,60	-1,0534E00
958,90	-1,4302E00
959,19	-1,1761E00
959,49	4,3101E-01
959,78	0,0000E00
960,08	-5,4766E-02
960,37	-1,4325E00
960,67	1,6635E-01
960,96	1,6768E00
961,26	0,0000E00
961,55	-2,1008E00
961,85	-4,6693E00
962,14	-3,8973E00
962,44	-2,3095E00
962,73	-9,3471E-01
963,03	-1,1743E-01
963,32	-1,5992E00
963,62	-1,7281E00
963,91	-2,5277E00
964,21	-3,0232E00
964,50	-4,1944E00
964,80	-4,2205E00
965,09	-3,8945E00
965,38	-2,0535E00
965,68	-6,8948E-01
965,97	3,1532E-01
966,27	-2,8629E00
966,56	-2,6915E00
966,85	-6,4445E-02
967,15	2,2065E00
967,44	1,9601E00
967,74	-3,2976E-01
968,03	-1,7288E00
968,32	-3,6806E00
968,62	-3,3638E00
968,91	-3,3898E-01
969,20	8,8740E-01
969,50	2,2034E00
969,79	2,2845E00
970,08	1,2589E00
970,38	-6,3394E-01
970,67	-8,5275E-01
970,96	-2,1472E-01
971,26	3,6149E-01
971,55	-3,4322E00
971,84	-2,5029E00
972,13	-1,4850E00
972,43	2,2481E-01
972,72	2,4176E00
973,01	1,5945E00
973,31	3,0508E00
973,60	2,3112E00
973,89	5,4491E-01
974,18	-7,8650E-02
974,48	-4,2001E00
974,77	-4,7889E00
975,06	-3,2279E00
975,35	-2,4427E-01
975,64	2,5436E00
975,94	-4,9473E-01
976,23	-1,0787E00
976,52	-1,5893E00
976,81	2,7000E00
977,10	1,6184E00
977,40	-1,2045E00
977,69	-1,7364E00
977,98	2,8027E00
978,27	9,0202E00
978,56	7,0520E00
978,86	6,3098E00
979,15	3,2580E00
979,44	4,7361E00
979,73	2,9252E00
980,02	4,2498E00
980,31	5,0327E00
980,60	1,6032E00
980,89	-2,8491E-01
981,19	7,6524E-01
981,48	5,8801E00
981,77	1,7590E00
982,06	-9,8732E-02
982,35	-2,7913E00
982,64	3,0092E00
982,93	1,5177E00
983,22	6,1100E-01
983,51	-3,5905E00
983,80	-4,1427E-01
984,09	-1,4690E00
984,38	-3,4981E00
984,67	-1,0167E01
984,96	-9,7020E00
985,25	-9,2333E00
985,55	-6,8847E00
985,84	-5,9415E00
986,13	-1,2221E00
986,42	2,2466E-01
986,71	-4,3057E00
987,00	-4,7987E00
987,29	-2,3079E00
987,58	1,9822E00
987,86	-2,0030E00
988,15	-5,5653E00
988,44	-6,4480E00
988,73	-1,6881E00
989,02	-4,8838E-01
989,31	-7,4038E-01
989,60	-1,8675E00
989,89	-4,7721E00
990,18	-2,5328E-01
990,47	6,3828E-01
990,76	0,0000E00
991,05	-1,2993E-01
991,34	-6,5650E00
991,63	-5,4427E00
991,92	4,0307E-01
992,20	8,6399E00
992,49	1,0633E01
992,78	1,5116E00
993,07	8,3552E-01
993,36	1,1207E00
993,65	1,4188E00
993,94	-3,1565E00
994,22	-3,9183E00
994,51	-4,8337E00
994,80	1,1832E00
995,09	2,2472E00
995,38	3,0171E00
995,67	1,3698E00
995,95	1,3795E00
996,24	-1,0850E00
996,53	-6,2652E00
996,82	-1,0959E01
997,11	-1,0233E01
997,39	-6,9566E00
997,68	-9,0934E00
997,97	-1,2991E01
998,26	-1,4433E01
998,54	-3,7084E00
998,83	-4,0824E00
999,12	3,2563E00
999,41	-7,0792E00
999,69	3,1411E00
999,98	-8,8156E-01
1000,27	4,8172E00
1000,56	3,6023E00
1000,84	-5,2679E00
1001,13	-5,1207E00
1001,42	3,6882E-01
1001,70	7,6268E00
1001,99	9,5762E00
1002,28	-5,3173E00
1002,56	-7,7261E-01
1002,85	-6,0658E00
1003,14	8,3031E00
1003,42	-5,9667E-01
1003,71	4,2172E00
1004,00	-3,4552E00
1004,28	8,2037E-01
1004,57	-3,7256E00
1004,86	-8,3332E-01
1005,14	-2,7482E00
1005,43	-1,7070E00
1005,72	-6,9196E00
1006,00	-1,4812E01
1006,29	-1,7416E01
1006,57	-1,4051E01
1006,86	-6,7596E-01
1007,15	6,8520E00
1007,43	5,7932E00
1007,72	-2,5853E00
1008,00	-1,1191E01
1008,29	-6,9738E00
1008,57	-4,8590E00
1008,86	1,2282E00
1009,14	-7,7142E00
1009,43	-4,8127E00
1009,71	-5,1282E-01
1010,00	6,7083E00
1010,29	2,3414E00
1010,57	-2,3725E00
1010,86	-7,9965E00
1011,14	-1,2436E01
1011,43	-1,1475E01
1011,71	2,2220E00
1011,99	9,8364E00
1012,28	4,2495E00
1012,56	-3,4268E00
1012,85	5,4769E00
1013,13	1,6971E01
1013,42	9,4757E00
1013,70	-2,1017E00
1013,99	-7,2769E00
1014,27	3,9984E00
1014,56	1,2080E01
1014,84	3,7556E00
1015,12	6,3165E-01
1015,41	6,4094E-01
1015,69	1,8163E01
1015,98	2,3612E01
1016,26	2,4777E01
1016,54	9,0326E00
1016,83	5,1004E00
1017,11	-1,3762E00
1017,39	1,7366E00
1017,68	-6,9991E-01
1017,96	-2,8507E00
1018,25	5,4251E00
1018,53	-5,1248E00
1018,81	-4,0754E00
1019,10	-1,1221E01
1019,38	-1,1323E00
1019,66	3,7976E-01
1019,94	7,2521E00
1020,23	2,7174E00
1020,51	-1,1733E00
1020,79	3,9715E00
1021,08	-3,6035E00
1021,36	-4,8357E00
1021,64	-2,3137E01
1021,93	-1,2690E01
1022,21	-6,6898E00
1022,49	-6,6898E00
>>>>>End Processed Spectral Data<<<<<
