SpectraSuite Data File
++++++++++++++++++++++++++++++++++++
Date: Mon May 06 15:25:45 EEST 2019
User: mkilpela
Dark Spectrum Present: Yes
Reference Spectrum Present: No
Number of Sampled Component Spectra: 1
Spectrometers: JAZA2845
Integration Time (usec): 1143 (JAZA2845)
Spectra Averaged: 1 (JAZA2845)
Boxcar Smoothing: 1 (JAZA2845)
Correct for Electrical Dark: No (JAZA2845)
Strobe/Lamp Enabled: No (JAZA2845)
Correct for Detector Non-linearity: No (JAZA2845)
Correct for Stray Light: No (JAZA2845)
Number of Pixels in Processed Spectrum: 2048
>>>>>Begin Processed Spectral Data<<<<<
340,21	0,0000E00
340,58	0,0000E00
340,96	0,0000E00
341,33	0,0000E00
341,70	0,0000E00
342,07	-0,0000E00
342,45	-0,0000E00
342,82	-0,0000E00
343,19	-0,0000E00
343,57	-0,0000E00
343,94	0,0000E00
344,31	0,0000E00
344,68	-0,0000E00
345,06	0,0000E00
345,43	-0,0000E00
345,80	-0,0000E00
346,18	-0,0000E00
346,55	0,0000E00
346,92	0,0000E00
347,29	-0,0000E00
347,67	-0,0000E00
348,04	-0,0000E00
348,41	-0,0000E00
348,78	-0,0000E00
349,16	-0,0000E00
349,53	-0,0000E00
349,90	0,0000E00
350,27	3,9103E-01
350,64	5,3174E-01
351,02	6,9579E-01
351,39	5,2922E-01
351,76	5,0213E-01
352,13	1,2281E-01
352,51	-2,8865E-01
352,88	-7,8241E-01
353,25	-4,2734E-01
353,62	3,8255E-01
353,99	6,6243E-01
354,37	4,3081E-01
354,74	1,8256E-01
355,11	6,7865E-01
355,48	1,0013E00
355,85	1,0685E00
356,23	9,1306E-01
356,60	8,8218E-01
356,97	9,7220E-01
357,34	9,9190E-01
357,71	1,0362E00
358,08	6,8287E-01
358,46	2,7781E-01
358,83	6,7003E-02
359,20	-9,4963E-02
359,57	4,0857E-01
359,94	5,9309E-01
360,31	6,8953E-01
360,69	1,1426E00
361,06	1,3295E00
361,43	1,2166E00
361,80	1,1971E-01
362,17	-1,6629E-01
362,54	5,2901E-02
362,91	3,2851E-01
363,29	1,4148E-01
363,66	2,6883E-02
364,03	7,1292E-01
364,40	1,0467E00
364,77	7,7222E-01
365,14	3,0842E-01
365,51	2,1532E-01
365,88	7,1148E-01
366,26	3,7933E-01
366,63	9,5394E-01
367,00	9,3965E-01
367,37	1,1278E00
367,74	9,1211E-01
368,11	7,3812E-01
368,48	5,5158E-01
368,85	2,3597E-01
369,22	1,6825E-01
369,59	5,3429E-01
369,97	1,9671E-01
370,34	9,9376E-02
370,71	-1,2619E-01
371,08	-1,6960E-01
371,45	-8,4084E-02
371,82	-5,0730E-01
372,19	-3,4674E-01
372,56	-6,0257E-01
372,93	-2,2073E-02
373,30	4,5412E-01
373,67	6,4298E-01
374,04	5,7298E-02
374,41	-1,5710E-01
374,78	-5,5961E-02
375,15	6,1499E-01
375,52	5,6717E-01
375,89	7,0786E-01
376,26	2,7149E-01
376,63	3,9498E-01
377,00	3,6151E-01
377,38	5,6870E-01
377,75	6,5332E-01
378,12	3,4752E-01
378,49	3,8409E-01
378,86	8,5304E-02
379,23	4,6357E-01
379,60	3,9346E-01
379,97	6,8779E-01
380,34	1,1787E-01
380,71	1,0525E-01
381,08	-3,6295E-01
381,45	5,8997E-02
381,82	1,3409E-01
382,19	3,4251E-01
382,55	6,8777E-01
382,92	1,0102E00
383,29	7,6287E-01
383,66	5,4430E-01
384,03	4,1001E-01
384,40	6,8828E-01
384,77	5,6982E-01
385,14	4,7103E-01
385,51	4,3555E-01
385,88	3,6953E-01
386,25	9,3254E-02
386,62	1,9529E-01
386,99	9,2885E-02
387,36	5,5470E-01
387,73	4,3762E-01
388,10	7,1086E-01
388,47	3,8516E-01
388,84	6,3161E-01
389,21	5,9522E-01
389,58	4,8875E-01
389,94	4,5566E-01
390,31	6,2510E-02
390,68	4,2567E-01
391,05	4,1122E-01
391,42	5,4006E-01
391,79	4,2499E-01
392,16	2,2412E-01
392,53	3,3811E-01
392,90	1,5360E-01
393,27	3,4118E-01
393,63	2,8210E-01
394,00	3,3697E-01
394,37	7,8976E-02
394,74	1,9174E-01
395,11	4,5303E-01
395,48	4,2183E-01
395,85	4,9371E-01
396,22	2,0471E-01
396,58	3,2159E-01
396,95	8,9751E-02
397,32	6,8038E-02
397,69	6,0309E-02
398,06	1,6674E-01
398,43	6,0349E-01
398,80	5,2890E-01
399,16	5,9071E-01
399,53	6,5321E-02
399,90	7,8234E-02
400,27	9,7762E-02
400,64	3,9551E-01
401,01	5,0781E-01
401,37	4,5546E-01
401,74	3,9595E-01
402,11	3,0642E-01
402,48	9,9114E-02
402,85	6,1046E-03
403,22	-1,8202E-02
403,58	1,2798E-01
403,95	2,7190E-01
404,32	4,2528E-01
404,69	3,0753E-01
405,06	3,2507E-01
405,42	2,1032E-01
405,79	6,6990E-01
406,16	6,1135E-01
406,53	6,9125E-01
406,89	3,8128E-01
407,26	3,0441E-01
407,63	3,3732E-01
408,00	6,8707E-01
408,37	7,9524E-01
408,73	9,4563E-01
409,10	8,0054E-01
409,47	1,0306E00
409,84	1,1920E00
410,20	1,2427E00
410,57	1,0358E00
410,94	8,1002E-01
411,31	7,3282E-01
411,67	9,3710E-01
412,04	1,1638E00
412,41	1,2263E00
412,77	1,3774E00
413,14	1,4310E00
413,51	1,5880E00
413,88	1,6890E00
414,24	1,6944E00
414,61	1,9413E00
414,98	2,1681E00
415,34	2,3985E00
415,71	2,6397E00
416,08	2,8532E00
416,45	3,0435E00
416,81	3,2546E00
417,18	3,4927E00
417,55	3,7559E00
417,91	4,0020E00
418,28	4,1752E00
418,65	4,6443E00
419,01	4,9969E00
419,38	5,4065E00
419,75	6,0200E00
420,11	6,4841E00
420,48	7,0730E00
420,85	7,3299E00
421,21	7,8509E00
421,58	8,5817E00
421,95	9,4085E00
422,31	1,0352E01
422,68	1,0879E01
423,05	1,1270E01
423,41	1,1909E01
423,78	1,2457E01
424,15	1,3615E01
424,51	1,4483E01
424,88	1,5394E01
425,24	1,6016E01
425,61	1,6812E01
425,98	1,8098E01
426,34	1,9554E01
426,71	2,0672E01
427,07	2,1866E01
427,44	2,3093E01
427,81	2,5161E01
428,17	2,7197E01
428,54	2,9115E01
428,90	3,0571E01
429,27	3,2742E01
429,64	3,5089E01
430,00	3,8232E01
430,37	4,1386E01
430,73	4,4742E01
431,10	4,8199E01
431,46	5,1164E01
431,83	5,5115E01
432,20	5,9318E01
432,56	6,4646E01
432,93	7,0686E01
433,29	7,6399E01
433,66	8,2167E01
434,02	8,7249E01
434,39	9,3549E01
434,75	9,9838E01
435,12	1,0684E02
435,49	1,1300E02
435,85	1,1976E02
436,22	1,2682E02
436,58	1,3444E02
436,95	1,4208E02
437,31	1,4897E02
437,68	1,5593E02
438,04	1,6304E02
438,41	1,7067E02
438,77	1,7811E02
439,14	1,8628E02
439,50	1,9170E02
439,87	1,9881E02
440,23	2,0430E02
440,60	2,1183E02
440,96	2,1684E02
441,33	2,2147E02
441,69	2,2599E02
442,06	2,3166E02
442,42	2,3675E02
442,78	2,4204E02
443,15	2,4487E02
443,51	2,4999E02
443,88	2,5267E02
444,24	2,5808E02
444,61	2,6059E02
444,97	2,6520E02
445,34	2,6734E02
445,70	2,6989E02
446,07	2,7193E02
446,43	2,7412E02
446,79	2,7619E02
447,16	2,7814E02
447,52	2,8052E02
447,89	2,8219E02
448,25	2,8442E02
448,62	2,8542E02
448,98	2,8716E02
449,34	2,8667E02
449,71	2,8653E02
450,07	2,8694E02
450,44	2,8776E02
450,80	2,8714E02
451,16	2,8509E02
451,53	2,8195E02
451,89	2,7872E02
452,25	2,7442E02
452,62	2,7120E02
452,98	2,6572E02
453,35	2,5968E02
453,71	2,5185E02
454,07	2,4670E02
454,44	2,4143E02
454,80	2,3561E02
455,16	2,2780E02
455,53	2,2024E02
455,89	2,1264E02
456,25	2,0586E02
456,62	1,9825E02
456,98	1,9152E02
457,34	1,8368E02
457,71	1,7644E02
458,07	1,6914E02
458,43	1,6274E02
458,80	1,5604E02
459,16	1,4950E02
459,52	1,4226E02
459,89	1,3645E02
460,25	1,3027E02
460,61	1,2511E02
460,98	1,1922E02
461,34	1,1465E02
461,70	1,1031E02
462,07	1,0580E02
462,43	1,0116E02
462,79	9,7199E01
463,15	9,3246E01
463,52	8,9611E01
463,88	8,5390E01
464,24	8,2016E01
464,61	7,8878E01
464,97	7,5851E01
465,33	7,2595E01
465,69	6,9656E01
466,06	6,6534E01
466,42	6,3144E01
466,78	5,9767E01
467,14	5,7344E01
467,51	5,5308E01
467,87	5,3412E01
468,23	5,1393E01
468,59	4,9805E01
468,95	4,8032E01
469,32	4,6140E01
469,68	4,4092E01
470,04	4,2108E01
470,40	4,0447E01
470,77	3,8973E01
471,13	3,7323E01
471,49	3,5335E01
471,85	3,3647E01
472,21	3,2184E01
472,58	3,0949E01
472,94	2,9459E01
473,30	2,8147E01
473,66	2,6920E01
474,02	2,5619E01
474,39	2,4352E01
474,75	2,2952E01
475,11	2,2020E01
475,47	2,0771E01
475,83	1,9864E01
476,19	1,8715E01
476,56	1,7774E01
476,92	1,6837E01
477,28	1,5844E01
477,64	1,5086E01
478,00	1,4366E01
478,36	1,3660E01
478,72	1,2946E01
479,09	1,2199E01
479,45	1,1635E01
479,81	1,1132E01
480,17	1,0672E01
480,53	1,0074E01
480,89	9,5247E00
481,25	9,1380E00
481,61	8,9125E00
481,97	8,5453E00
482,34	8,1093E00
482,70	7,5816E00
483,06	7,2616E00
483,42	6,9509E00
483,78	6,7005E00
484,14	6,3429E00
484,50	6,0400E00
484,86	5,7657E00
485,22	5,5629E00
485,58	5,2795E00
485,94	5,0444E00
486,31	4,7917E00
486,67	4,5047E00
487,03	4,2856E00
487,39	4,0119E00
487,75	3,8308E00
488,11	3,5601E00
488,47	3,3833E00
488,83	3,3086E00
489,19	3,1267E00
489,55	2,9499E00
489,91	2,7020E00
490,27	2,6168E00
490,63	2,5037E00
490,99	2,3673E00
491,35	2,2498E00
491,71	2,1414E00
492,07	1,9815E00
492,43	1,8306E00
492,79	1,6284E00
493,15	1,5473E00
493,51	1,3832E00
493,87	1,3148E00
494,23	1,1914E00
494,59	1,1457E00
494,95	1,0645E00
495,31	1,0381E00
495,67	1,0097E00
496,03	9,3487E-01
496,39	8,4791E-01
496,75	7,8762E-01
497,11	7,5275E-01
497,47	6,9034E-01
497,83	6,4245E-01
498,19	6,4040E-01
498,55	5,5511E-01
498,91	5,1048E-01
499,27	4,0413E-01
499,63	4,0609E-01
499,98	3,6980E-01
500,34	3,6230E-01
500,70	3,8126E-01
501,06	3,8581E-01
501,42	3,5102E-01
501,78	3,5117E-01
502,14	2,7082E-01
502,50	2,3242E-01
502,86	1,6046E-01
503,22	1,4413E-01
503,58	1,1717E-01
503,94	1,4789E-01
504,29	9,5616E-02
504,65	6,7344E-02
505,01	2,6598E-02
505,37	9,3563E-02
505,73	1,1148E-01
506,09	5,1538E-02
506,45	5,2819E-02
506,81	4,8446E-02
507,16	6,8938E-02
507,52	4,4074E-02
507,88	8,2720E-02
508,24	1,5023E-01
508,60	1,1286E-01
508,96	7,6822E-02
509,32	1,3687E-03
509,67	3,6864E-02
510,03	5,6000E-02
510,39	5,9919E-02
510,75	5,9921E-02
511,11	2,9908E-02
511,47	7,6197E-02
511,82	9,9261E-02
512,18	1,3604E-01
512,54	1,6613E-01
512,90	1,1993E-01
513,26	1,4172E-01
513,61	1,4693E-01
513,97	1,1285E-01
514,33	5,9840E-02
514,69	6,8140E-03
515,05	-9,5453E-03
515,40	3,6739E-02
515,76	4,0837E-03
516,12	4,2223E-02
516,48	5,4716E-03
516,83	5,1895E-02
517,19	1,1623E-01
517,55	1,7507E-01
517,91	1,9589E-01
518,26	1,6573E-01
518,62	1,9696E-01
518,98	1,3019E-01
519,34	1,4769E-01
519,69	9,0225E-02
520,05	9,5737E-02
520,41	6,0233E-02
520,77	4,7972E-02
521,12	7,6738E-02
521,48	7,5339E-02
521,84	3,0119E-02
522,19	-2,1856E-02
522,55	-1,5057E-02
522,91	5,0605E-02
523,27	1,4257E-01
523,62	1,3586E-01
523,98	1,7709E-01
524,34	1,5828E-01
524,69	1,3661E-01
525,05	8,0300E-02
525,41	3,4488E-02
525,76	8,5087E-02
526,12	1,0958E-01
526,48	1,0708E-01
526,83	5,8903E-02
527,19	1,5042E-02
527,55	2,5845E-02
527,90	8,8701E-02
528,26	3,2814E-02
528,62	4,2366E-02
528,97	-3,2692E-02
529,33	1,6286E-02
529,69	-6,7966E-03
530,04	9,5182E-03
530,40	-1,4926E-02
530,76	-8,1258E-03
531,11	1,3516E-03
531,47	-1,3550E-03
531,82	-2,0313E-02
532,18	-1,0834E-02
532,54	-2,8306E-02
532,89	2,8260E-02
533,25	-1,7450E-02
533,60	2,9623E-02
533,96	6,7132E-03
534,32	3,2236E-02
534,67	4,9593E-02
535,03	1,0630E-01
535,38	1,3426E-01
535,74	1,4862E-01
536,10	9,5811E-02
536,45	1,0256E-01
536,81	5,8464E-02
537,16	7,7113E-02
537,52	8,1031E-02
537,87	7,8302E-02
538,23	6,6076E-02
538,58	5,7976E-02
538,94	9,0837E-02
539,30	9,2153E-02
539,65	9,8469E-02
540,01	8,7883E-02
540,36	8,6334E-02
540,72	8,6078E-02
541,07	4,8109E-02
541,43	5,2080E-03
541,78	-3,8963E-02
542,14	-6,4807E-03
542,49	2,5849E-03
542,85	7,4998E-02
543,20	1,0878E-01
543,56	1,2549E-01
543,91	1,0464E-01
544,27	1,0545E-01
544,62	1,2733E-01
544,98	6,1637E-02
545,33	3,3364E-02
545,69	1,2790E-03
546,04	4,6013E-02
546,40	7,6582E-03
546,75	5,0982E-03
547,10	3,8161E-03
547,46	5,7278E-02
547,81	5,2177E-02
548,17	4,4538E-02
548,52	5,5872E-02
548,88	5,3238E-02
549,23	2,2779E-02
549,59	-3,7950E-03
549,94	0,0000E00
550,29	-1,2642E-02
550,65	8,8379E-03
551,00	6,1798E-02
551,36	8,4462E-02
551,71	5,5452E-02
552,06	3,6563E-02
552,42	1,2735E-01
552,77	1,2724E-01
553,13	1,1966E-01
553,48	4,5441E-02
553,83	0,0000E00
554,19	1,2639E-03
554,54	3,1563E-02
554,90	7,6946E-02
555,25	3,1627E-02
555,60	5,0628E-03
555,96	-2,9145E-02
556,31	-3,0407E-02
556,66	-4,0596E-02
557,02	3,1770E-02
557,37	3,9520E-02
557,72	5,4909E-02
558,08	5,1136E-03
558,43	3,7059E-02
558,79	7,0408E-02
559,14	9,2247E-02
559,49	5,0037E-02
559,85	-2,8255E-02
560,20	-3,4769E-02
560,55	-3,8702E-02
560,90	1,2932E-03
561,26	-1,6838E-02
561,61	-1,4276E-02
561,96	2,7312E-02
562,32	4,1736E-02
562,67	1,0454E-01
563,02	8,6430E-02
563,38	6,8157E-02
563,73	9,6068E-02
564,08	7,9228E-02
564,43	8,4807E-02
564,79	2,3866E-02
565,14	6,6334E-03
565,49	5,5758E-02
565,84	6,7898E-02
566,20	4,6713E-02
566,55	-4,4289E-02
566,90	-4,9822E-02
567,25	-1,0792E-02
567,61	1,8906E-02
567,96	6,4926E-02
568,31	7,0339E-02
568,66	1,0181E-01
569,02	9,3983E-02
569,37	6,4443E-02
569,72	6,3000E-02
570,07	3,1536E-02
570,42	1,2090E-01
570,78	1,2142E-01
571,13	1,6165E-01
571,48	8,8705E-02
571,83	1,0679E-01
572,18	5,5630E-02
572,54	4,3167E-02
572,89	-1,2546E-02
573,24	-8,3597E-03
573,59	1,1117E-02
573,94	1,9457E-02
574,30	5,4246E-02
574,65	3,7628E-02
575,00	3,9075E-02
575,35	1,2587E-02
575,70	5,1703E-02
576,05	6,4577E-02
576,40	5,2053E-02
576,76	7,0581E-03
577,11	1,4087E-02
577,46	4,3641E-02
577,81	5,6416E-02
578,16	6,2171E-02
578,51	1,4138E-03
578,86	2,9729E-02
579,21	2,8366E-02
579,57	6,3913E-02
579,92	3,9868E-02
580,27	3,2817E-02
580,62	1,5709E-02
580,97	1,4245E-02
581,32	2,2798E-02
581,67	3,8496E-02
582,02	2,1403E-02
582,37	-4,2719E-03
582,72	-3,7074E-02
583,08	-4,2825E-02
583,43	-6,3107E-02
583,78	-3,1628E-02
584,13	3,8821E-02
584,48	4,4552E-02
584,83	4,0239E-02
585,18	4,4541E-02
585,53	8,7514E-02
585,88	1,3076E-01
586,23	5,1843E-02
586,58	6,0470E-02
586,93	2,0144E-02
587,28	-2,1567E-02
587,63	-2,5905E-02
587,98	-1,8686E-02
588,33	5,0441E-02
588,68	2,5911E-02
589,03	-1,2972E-02
589,38	-4,7488E-02
589,73	-5,6307E-02
590,08	-2,6021E-02
590,43	6,9403E-02
590,78	2,1673E-02
591,13	3,8952E-02
591,48	5,4823E-02
591,83	6,6460E-02
592,18	7,2346E-02
592,53	1,8845E-02
592,88	6,8108E-02
593,23	2,0300E-02
593,58	-1,3078E-02
593,93	6,3997E-02
594,28	1,2100E-01
594,63	1,7344E-01
594,98	9,3273E-02
595,33	8,3093E-02
595,68	-7,3016E-03
596,02	1,3200E-02
596,37	-1,1742E-02
596,72	7,3429E-02
597,07	7,2015E-02
597,42	1,0886E-01
597,77	6,0456E-02
598,12	7,9840E-02
598,47	3,8495E-02
598,82	2,5160E-02
599,17	2,9619E-02
599,52	3,2680E-02
599,86	1,6393E-02
600,21	8,9531E-03
600,56	1,0464E-02
600,91	4,7901E-02
601,26	5,2511E-02
601,61	5,1055E-02
601,96	2,1048E-02
602,30	-3,6091E-02
602,65	-5,8828E-02
603,00	2,1185E-02
603,35	3,9463E-02
603,70	7,4533E-02
604,05	0,0000E00
604,40	1,5283E-02
604,74	1,5311E-03
605,09	3,6844E-02
605,44	1,8472E-02
605,79	4,6296E-02
606,14	4,3244E-02
606,48	5,4190E-02
606,83	-3,1064E-03
607,18	-6,3935E-02
607,53	-1,1098E-01
607,88	-8,9285E-02
608,22	-3,6073E-02
608,57	-1,1026E-02
608,92	2,3703E-02
609,27	2,2213E-02
609,62	2,0655E-02
609,96	-9,5611E-03
610,31	-4,1581E-02
610,66	-2,7269E-02
611,01	-4,0215E-02
611,35	4,3545E-02
611,70	8,2538E-02
612,05	1,5412E-01
612,40	1,2195E-01
612,74	1,0435E-01
613,09	5,3986E-02
613,44	1,3110E-02
613,79	-2,3024E-02
614,13	-3,2903E-03
614,48	-1,6506E-03
614,83	9,4314E-02
615,17	1,2297E-01
615,52	2,0177E-01
615,87	1,8705E-01
616,22	1,6584E-01
616,56	1,3442E-01
616,91	5,8986E-02
617,26	-1,3505E-02
617,60	-5,7469E-02
617,95	-7,9721E-02
618,30	-8,6748E-02
618,64	-1,0570E-01
618,99	-9,0536E-02
619,34	-3,7655E-02
619,68	-2,0599E-02
620,03	6,8715E-03
620,38	5,1613E-02
620,72	6,0363E-02
621,07	5,8830E-02
621,42	4,6804E-02
621,76	3,6468E-02
622,11	4,5258E-02
622,45	1,3982E-02
622,80	6,8408E-02
623,15	4,5722E-02
623,49	-1,9407E-02
623,84	-3,5355E-02
624,18	-2,1242E-02
624,53	4,7817E-02
624,88	2,4852E-02
625,22	4,0848E-02
625,57	3,9176E-02
625,91	1,3547E-01
626,26	2,2182E-01
626,61	2,7068E-01
626,95	1,4205E-01
627,30	9,0053E-02
627,64	5,6030E-02
627,99	1,3741E-01
628,33	5,7999E-02
628,68	-2,9055E-02
629,03	-1,4565E-02
629,37	2,5558E-02
629,72	1,1507E-01
630,06	1,0073E-01
630,41	1,0102E-01
630,75	9,0250E-02
631,10	2,2156E-02
631,44	4,9939E-02
631,79	7,4191E-03
632,13	5,7579E-02
632,48	-5,9535E-02
632,82	1,8668E-03
633,17	1,4963E-02
633,51	8,8075E-02
633,86	-1,8732E-03
634,20	-1,4437E-01
634,55	-1,0708E-01
634,89	-3,7610E-03
635,24	1,3381E-01
635,58	7,7455E-02
635,93	-1,8922E-03
636,27	-5,6893E-02
636,62	-8,7140E-02
636,96	-3,0399E-02
637,30	1,9034E-02
637,65	9,5407E-03
637,99	7,6402E-03
638,34	-6,3147E-02
638,68	-3,8319E-03
639,03	3,6472E-02
639,37	8,4579E-02
639,71	8,0945E-02
640,06	-4,8294E-02
640,40	-8,3182E-02
640,75	-6,0040E-02
641,09	7,5616E-02
641,44	6,2113E-02
641,78	1,0315E-01
642,12	5,2631E-02
642,47	1,1915E-01
642,81	7,6361E-02
643,15	5,2948E-02
643,50	-7,8631E-03
643,84	-3,1477E-02
644,19	-5,9193E-02
644,53	0,0000E00
644,87	-7,9177E-03
645,22	1,0899E-01
645,56	8,5532E-02
645,90	7,9704E-02
646,25	2,7955E-02
646,59	9,8038E-02
646,93	1,6034E-01
647,28	1,6657E-01
647,62	9,4512E-02
647,96	5,6444E-02
648,31	9,1004E-02
648,65	8,9044E-02
648,99	4,2607E-02
649,34	-2,6411E-02
649,68	5,7025E-02
650,02	8,9737E-02
650,36	6,3289E-02
650,71	-6,3360E-02
651,05	-1,1260E-01
651,39	-9,2449E-02
651,74	-4,5363E-02
652,08	4,1314E-02
652,42	4,5578E-02
652,76	1,0163E-01
653,11	2,7035E-02
653,45	2,0860E-03
653,79	-7,3232E-02
654,13	-7,7611E-02
654,48	-1,6812E-02
654,82	2,5293E-02
655,16	9,0929E-02
655,50	2,5438E-02
655,85	3,1832E-02
656,19	3,4020E-02
656,53	6,3937E-02
656,87	1,4941E-02
657,21	2,5657E-02
657,56	4,7080E-02
657,90	1,0738E-02
658,24	-6,4482E-03
658,58	1,9389E-02
658,92	9,4887E-02
659,27	1,5152E-02
659,61	-4,9850E-02
659,95	-1,0870E-01
660,29	1,0887E-02
660,63	6,9839E-02
660,97	1,2695E-01
661,32	9,2246E-02
661,66	4,4070E-02
662,00	2,4298E-02
662,34	-3,1012E-02
662,68	2,2217E-02
663,02	-2,0030E-02
663,37	2,6769E-02
663,71	-4,4716E-03
664,05	9,6562E-02
664,39	5,1826E-02
664,73	9,0394E-02
665,07	2,2652E-03
665,41	1,1113E-01
665,75	1,5710E-01
666,09	1,1192E-01
666,44	8,2566E-02
666,78	-4,3673E-02
667,12	2,7648E-02
667,46	-1,6183E-02
667,80	-3,4804E-02
668,14	-3,0270E-02
668,48	-7,2336E-02
668,82	2,3400E-03
669,16	-2,1107E-02
669,50	7,0588E-03
669,84	2,3585E-03
670,18	5,9192E-02
670,52	1,8050E-01
670,86	1,7406E-01
671,20	1,1708E-01
671,54	7,4439E-02
671,88	1,2983E-01
672,22	1,4261E-01
672,57	9,9166E-02
672,91	1,9691E-01
673,25	2,1172E-01
673,59	2,2490E-01
673,93	4,1648E-02
674,27	9,8516E-03
674,61	4,1922E-02
674,95	6,1898E-02
675,28	6,6955E-02
675,62	-2,9874E-02
675,96	-6,4858E-02
676,30	-4,7545E-02
676,64	-4,5164E-02
676,98	-5,0416E-03
677,32	-8,1115E-02
677,66	-8,3896E-02
678,00	-4,3253E-02
678,34	-5,8530E-02
678,68	-1,0220E-02
679,02	-1,7966E-02
679,36	1,2368E-01
679,70	1,6801E-01
680,04	1,1659E-01
680,38	1,4294E-01
680,72	1,4087E-01
681,06	2,2516E-01
681,39	1,0230E-01
681,73	-1,3142E-02
682,07	-1,2136E-01
682,41	-6,6292E-02
682,75	-5,0400E-02
683,09	2,1303E-02
683,43	2,4020E-02
683,77	-4,2955E-02
684,11	-1,4785E-01
684,44	-2,3153E-01
684,78	-1,7019E-01
685,12	-1,0298E-01
685,46	2,7206E-03
685,80	-1,3099E-01
686,14	-1,7791E-01
686,48	-1,4837E-01
686,81	5,2295E-02
687,15	5,2493E-02
687,49	-3,3182E-02
687,83	2,5032E-02
688,17	1,4488E-01
688,51	2,4097E-01
688,84	5,8891E-02
689,18	-7,0454E-02
689,52	-1,8068E-01
689,86	-1,5305E-01
690,20	-7,3924E-02
690,53	-5,1224E-02
690,87	-3,7116E-02
691,21	-2,0044E-02
691,55	8,6472E-03
691,88	0,0000E00
692,22	-6,3698E-02
692,56	-8,3924E-02
692,90	-7,5222E-02
693,23	-1,2459E-01
693,57	-1,8013E-01
693,91	-1,1954E-01
694,25	-4,3919E-02
694,58	5,8798E-02
694,92	1,0599E-01
695,26	1,6861E-01
695,60	2,5494E-01
695,93	1,9012E-01
696,27	2,2616E-01
696,61	8,0670E-02
696,94	2,3072E-01
697,28	2,0411E-01
697,62	2,1351E-01
697,96	1,6244E-01
698,29	1,8385E-01
698,63	2,1109E-01
698,97	9,9891E-02
699,30	-2,1233E-02
699,64	-4,8624E-02
699,98	3,6537E-02
700,31	6,0875E-02
700,65	5,8013E-02
700,99	3,0635E-03
701,32	-3,3811E-02
701,66	0,0000E00
702,00	5,8535E-02
702,33	1,6066E-01
702,67	1,6141E-01
703,00	6,8477E-02
703,34	-2,4964E-02
703,68	-8,1304E-02
704,01	-1,2584E-01
704,35	-8,5060E-02
704,69	-3,1487E-03
705,02	7,5380E-02
705,36	9,4483E-02
705,69	2,5263E-02
706,03	4,1231E-02
706,36	2,5379E-02
706,70	-2,8549E-02
707,04	-6,3403E-02
707,37	-7,3158E-02
707,71	-2,2346E-02
708,04	-4,1653E-02
708,38	-3,2061E-03
708,71	-3,5343E-02
709,05	1,6099E-02
709,39	-7,4256E-02
709,72	-1,2936E-02
710,06	-6,4893E-03
710,39	7,8037E-02
710,73	8,8141E-02
711,06	5,5451E-02
711,40	1,2113E-01
711,73	2,7814E-01
712,07	2,8218E-01
712,40	2,6910E-01
712,74	6,2466E-02
713,07	1,1528E-01
713,41	-9,9043E-02
713,74	-3,3158E-03
714,08	-7,3182E-02
714,41	7,6819E-02
714,75	-2,3382E-02
715,08	-6,6876E-02
715,42	-1,6743E-02
715,75	1,2428E-01
716,08	1,5142E-01
716,42	1,4142E-01
716,75	-6,7567E-02
717,09	6,7833E-03
717,42	-6,8002E-03
717,76	-3,4032E-02
718,09	-1,5347E-01
718,43	-1,9812E-01
718,76	-1,5068E-01
719,09	-1,1305E-01
719,43	1,0318E-02
719,76	5,8559E-02
720,10	2,4176E-01
720,43	1,7974E-01
720,76	2,5972E-01
721,10	1,5620E-01
721,43	1,2188E-01
721,76	1,3238E-01
722,10	1,1865E-01
722,43	1,2909E-01
722,77	3,5039E-02
723,10	4,5684E-02
723,43	3,1736E-02
723,77	1,0594E-02
724,10	-8,8379E-02
724,43	-2,8346E-02
724,77	-1,0316E-01
725,10	-6,7703E-02
725,43	-3,5746E-02
725,77	1,0025E-01
726,10	1,2928E-01
726,43	-6,4782E-02
726,77	2,5248E-02
727,10	6,8738E-02
727,43	6,1593E-02
727,77	-8,3533E-02
728,10	-9,4827E-02
728,43	2,5623E-02
728,76	1,6163E-01
729,10	1,3218E-01
729,43	1,9501E-01
729,76	8,4791E-02
730,09	1,1108E-01
730,43	8,9123E-02
730,76	1,3035E-01
731,09	8,2033E-02
731,42	-2,6156E-02
731,76	-1,6131E-01
732,09	-1,2809E-01
732,42	-1,5506E-01
732,75	-8,3289E-02
733,09	-2,5091E-01
733,42	-1,8307E-01
733,75	-1,3429E-01
734,08	-3,0747E-02
734,41	-1,6161E-01
734,75	-1,9257E-02
735,08	6,1841E-02
735,41	1,9412E-01
735,74	2,7287E-02
736,07	3,9094E-02
736,41	-6,2850E-02
736,74	-7,0866E-02
737,07	-1,5799E-02
737,40	-1,9751E-02
737,73	8,7238E-02
738,06	-3,9736E-02
738,40	1,0761E-01
738,73	1,3190E-01
739,06	3,2153E-02
739,39	-1,6126E-02
739,72	-2,2630E-01
740,05	3,2435E-02
740,38	-1,6323E-02
740,72	6,5542E-02
741,05	-9,0279E-02
741,38	-4,9419E-02
741,71	-1,2410E-02
742,04	1,9126E-01
742,37	2,9166E-01
742,70	1,7983E-01
743,03	3,7764E-02
743,36	8,8379E-02
743,69	2,9588E-01
744,02	2,2037E-01
744,36	1,4045E-01
744,69	1,4055E-01
745,02	2,3518E-01
745,35	1,8035E-01
745,68	1,4244E-01
746,01	9,5173E-02
746,34	1,9123E-01
746,67	2,9660E-01
747,00	3,0262E-01
747,33	5,2748E-02
747,66	-5,7353E-02
747,99	-1,5926E-01
748,32	-1,0667E-01
748,65	-9,8086E-02
748,98	-1,0746E-01
749,31	-3,5954E-02
749,64	-4,0572E-02
749,97	9,0507E-02
750,30	1,3631E-01
750,63	1,1412E-01
750,96	1,8316E-02
751,29	-1,0550E-01
751,62	-1,8435E-02
751,95	1,1568E-01
752,28	2,1840E-01
752,61	3,7304E-02
752,94	1,1229E-01
753,27	6,1151E-02
753,60	0,0000E00
753,92	-2,6061E-01
754,25	-3,2302E-01
754,58	-7,6400E-02
754,91	1,1016E-01
755,24	3,7002E-01
755,57	2,6966E-01
755,90	3,5305E-01
756,23	1,4566E-01
756,56	6,8325E-02
756,89	-1,8103E-01
757,22	-1,2772E-01
757,54	-5,4267E-02
757,87	-4,9482E-02
758,20	-1,2420E-01
758,53	-1,8922E-01
758,86	-1,4530E-01
759,19	2,5137E-02
759,52	1,9195E-01
759,84	3,2933E-01
760,17	3,5593E-01
760,50	3,1143E-01
760,83	3,0020E-01
761,16	1,4065E-01
761,49	-3,1355E-02
761,81	-3,2787E-01
762,14	-3,1845E-01
762,47	-1,5196E-01
762,80	1,0504E-01
763,13	7,9127E-02
763,45	-1,0086E-01
763,78	-2,0757E-01
764,11	-3,0420E-01
764,44	-1,5476E-01
764,77	-4,8300E-02
765,09	1,6135E-02
765,42	-1,1915E-01
765,75	-2,1159E-01
766,08	-1,8000E-01
766,40	-2,4047E-01
766,73	-1,7567E-01
767,06	-2,3172E-01
767,39	1,2729E-01
767,71	8,9030E-02
768,04	2,1751E-01
768,37	-6,7264E-02
768,70	1,5175E-01
769,02	2,0867E-01
769,35	4,9190E-01
769,68	3,0068E-01
770,00	1,3645E-01
770,33	-6,8492E-02
770,66	3,4426E-02
770,99	1,6158E-01
771,31	1,9711E-01
771,64	1,5134E-01
771,97	1,4594E-01
772,29	3,8088E-01
772,62	3,2925E-01
772,95	3,4296E-01
773,27	1,0690E-01
773,60	6,5348E-02
773,93	1,5441E-01
774,25	1,9056E-01
774,58	4,4833E-01
774,90	3,9120E-01
775,23	3,8059E-01
775,56	4,3723E-01
775,88	3,6574E-01
776,21	3,4822E-01
776,54	2,2067E-01
776,86	2,5161E-01
777,19	2,4684E-01
777,51	4,3313E-02
777,84	2,5513E-01
778,16	1,9384E-01
778,49	3,4596E-01
778,82	-4,4144E-02
779,14	1,6399E-01
779,47	2,8466E-01
779,79	3,3724E-01
780,12	-7,6807E-02
780,44	-5,1393E-01
780,77	-7,4710E-01
781,10	-6,8529E-01
781,42	-7,2212E-01
781,75	-2,9436E-01
782,07	-2,9571E-01
782,40	3,2912E-02
782,72	-1,3889E-01
783,05	-2,6550E-02
783,37	-2,6677E-02
783,70	-2,0677E-01
784,02	-2,6751E-02
784,35	-3,5575E-01
784,67	-6,7599E-02
785,00	8,1739E-02
785,32	2,6004E-01
785,65	-6,8466E-02
785,97	-3,1584E-01
786,30	-1,3054E-01
786,62	2,0769E-02
786,94	-2,7729E-02
787,27	-2,7903E-01
787,59	1,1143E-01
787,92	2,0916E-02
788,24	3,2796E-01
788,57	1,1915E-01
788,89	2,5982E-01
789,22	-1,4055E-01
789,54	-1,8248E-01
789,86	-4,0108E-01
790,19	4,2214E-02
790,51	1,4089E-02
790,84	4,6481E-01
791,16	3,0351E-01
791,48	4,5944E-01
791,81	2,8267E-01
792,13	3,0431E-01
792,45	4,9562E-01
792,78	3,2570E-01
793,10	1,1325E-01
793,43	2,8311E-02
793,75	9,2289E-02
794,07	6,5159E-01
794,40	5,7255E-01
794,72	7,7539E-01
795,04	2,6780E-01
795,37	2,5468E-01
795,69	-4,9479E-02
796,01	1,9787E-01
796,34	2,0400E-01
796,66	1,1899E-01
796,98	-3,4917E-02
797,30	-1,6744E-01
797,63	2,9329E-01
797,95	2,0942E-01
798,27	2,9892E-01
798,60	0,0000E00
798,92	2,7876E-01
799,24	1,4692E-01
799,56	-9,0835E-02
799,89	-2,2366E-01
800,21	-3,2102E-01
800,53	6,9698E-02
800,85	-1,3943E-02
801,18	1,4655E-01
801,50	1,3964E-01
801,82	2,1649E-01
802,14	1,9556E-01
802,47	2,6563E-01
802,79	4,0585E-01
803,11	2,3723E-01
803,43	4,8866E-02
803,75	-3,3446E-01
804,08	-3,0094E-01
804,40	-2,6556E-01
804,72	-1,6084E-01
805,04	5,6130E-02
805,36	-8,4449E-02
805,69	6,3581E-02
806,01	-7,0609E-02
806,33	4,9689E-02
806,65	-1,2083E-01
806,97	-2,3509E-01
807,29	-1,7799E-01
807,62	-1,8559E-01
807,94	-2,1461E-02
808,26	-1,0051E-01
808,58	7,1921E-02
808,90	6,4917E-02
809,22	5,7774E-02
809,54	-4,3422E-02
809,86	-2,3910E-01
810,18	-2,6121E-01
810,51	0,0000E00
810,83	2,8489E-01
811,15	4,3210E-01
811,47	2,5643E-01
811,79	1,4686E-01
812,11	-1,4752E-02
812,43	1,0367E-01
812,75	1,2623E-01
813,07	1,4872E-01
813,39	-8,9377E-02
813,71	-1,4927E-02
814,03	1,4956E-02
814,35	4,4960E-02
814,67	-2,2551E-02
814,99	-3,0143E-02
815,31	2,1165E-01
815,64	3,3305E-01
815,96	4,9273E-01
816,28	5,4002E-01
816,60	5,8738E-01
816,92	3,2976E-01
817,24	3,5346E-01
817,56	6,9446E-02
817,88	3,2485E-01
818,19	2,7184E-01
818,51	3,1139E-01
818,83	1,3271E-01
819,15	-2,4257E-01
819,47	-2,6712E-01
819,79	-3,9419E-01
820,11	-4,0363E-01
820,43	-2,1445E-01
820,75	-2,3067E-01
821,07	-7,1747E-02
821,39	-3,2746E-01
821,71	-8,8301E-02
822,03	0,0000E00
822,35	-3,2325E-02
822,67	-2,4301E-02
822,99	-2,3529E-01
823,31	-1,3032E-01
823,62	-4,0899E-02
823,94	-1,4811E-01
824,26	1,8177E-01
824,58	1,9897E-01
824,90	5,4857E-01
825,22	7,9307E-01
825,54	5,1935E-01
825,86	2,7742E-01
826,17	2,1891E-01
826,49	5,1524E-01
826,81	7,8840E-01
827,13	5,4462E-01
827,45	5,0372E-01
827,77	3,1689E-01
828,08	-1,6330E-01
828,40	-4,3162E-01
828,72	-2,7709E-01
829,04	-2,5245E-01
829,36	2,5622E-15
829,67	-1,9287E-01
829,99	-6,1637E-02
830,31	-3,5405E-01
830,63	-3,0224E-01
830,95	-1,2481E-01
831,26	-8,0332E-02
831,58	-8,0617E-02
831,90	-1,7967E-01
832,22	-1,8082E-01
832,53	-1,4520E-01
832,85	-8,2136E-02
833,17	-7,3331E-02
833,49	-1,7525E-01
833,80	-2,5019E-01
834,12	-2,1390E-01
834,44	1,7710E-01
834,76	-3,7439E-02
835,07	3,7565E-02
835,39	-1,7877E-01
835,71	7,5318E-02
836,02	-1,7936E-01
836,34	-9,4655E-02
836,66	8,5376E-02
836,97	2,4682E-01
837,29	-4,0082E-01
837,61	-5,8427E-01
837,93	-6,5380E-01
838,24	-2,4095E-01
838,56	-1,8410E-01
838,88	1,6543E-01
839,19	3,8131E-01
839,51	5,6968E-01
839,82	4,5455E-01
840,14	5,2525E-01
840,46	2,6814E-01
840,77	3,9830E-01
841,09	4,3927E-01
841,41	9,5107E-01
841,72	9,5421E-01
842,04	9,3725E-01
842,35	3,1384E-01
842,67	-3,0436E-02
842,99	-1,0197E-01
843,30	-6,1426E-02
843,62	-1,6487E-01
843,93	-2,6882E-01
844,25	-3,4246E-01
844,56	-3,1276E-02
844,88	1,7808E-01
845,20	5,3676E-01
845,51	5,8088E-01
845,83	2,8623E-01
846,14	-1,0619E-01
846,46	1,5952E-01
846,77	9,6323E-02
847,09	4,0914E-01
847,40	-5,4243E-02
847,72	8,7013E-02
848,03	2,1829E-01
848,35	6,6808E-01
848,66	5,9321E-01
848,98	3,3035E-01
849,29	-1,3249E-01
849,61	-3,9886E-01
849,92	-4,4572E-01
850,24	-7,6061E-01
850,55	-4,9425E-01
850,87	-2,7077E-01
851,18	-1,4732E-01
851,50	1,0254E-01
851,81	1,1445E-02
852,12	2,8745E-01
852,44	9,2493E-02
852,75	-1,0434E-01
853,07	-2,9093E-01
853,38	-2,4500E-01
853,70	-2,6933E-01
854,01	-5,0593E-01
854,32	-3,9076E-01
854,64	-1,6668E-01
854,95	4,1743E-01
855,27	-2,3877E-02
855,58	-4,6774E-01
855,89	-6,6318E-01
856,21	-3,2664E-01
856,52	-2,6721E-01
856,83	-4,8821E-02
857,15	3,6040E-15
857,46	4,9282E-02
857,77	-9,8857E-02
858,09	-2,4772E-01
858,40	1,3688E-01
858,71	1,8797E-01
859,03	2,1438E-01
859,34	2,5297E-02
859,65	5,1988E-01
859,97	9,0411E-01
860,28	4,7421E-01
860,59	-1,1605E-01
860,91	-3,2367E-01
861,22	-2,3366E-01
861,53	-9,1131E-02
861,84	-5,2297E-02
862,16	7,9003E-01
862,47	8,5899E-01
862,78	9,5575E-01
863,10	6,3819E-01
863,41	3,0717E-01
863,72	1,3422E-02
864,03	9,4497E-02
864,35	3,9352E-01
864,66	8,5848E-01
864,97	1,0802E00
865,28	1,4005E00
865,59	1,1586E00
865,91	4,2915E-01
866,22	1,1125E-01
866,53	2,5136E-01
866,84	1,0111E00
867,15	6,9055E-01
867,47	2,5461E-01
867,78	-8,5329E-02
868,09	2,8592E-01
868,40	3,0104E-01
868,71	0,0000E00
869,02	-3,0360E-01
869,34	1,7477E-01
869,65	1,1116E00
869,96	1,1760E00
870,27	2,8017E-01
870,58	-4,0017E-01
870,89	-1,1925E-01
871,20	1,5013E-02
871,52	4,3664E-01
871,83	3,4789E-01
872,14	8,0458E-01
872,45	4,5764E-02
872,76	3,3732E-01
873,07	6,1619E-02
873,38	5,1140E-01
873,69	-3,4283E-01
874,00	-5,3207E-01
874,31	-6,2950E-01
874,62	-6,3266E-01
874,94	-3,6538E-01
875,25	-6,3815E-01
875,56	-8,9613E-01
875,87	-8,3674E-01
876,18	-5,7980E-01
876,49	5,4966E-01
876,80	3,3998E-01
877,11	-5,0467E-01
877,42	-1,0953E00
877,73	-1,1982E00
878,04	1,3175E-01
878,35	1,3201E-01
878,66	1,0774E00
878,97	2,1619E-01
879,28	5,0101E-02
879,59	-5,1976E-01
879,90	-2,3551E-01
880,21	4,2122E-01
880,52	4,2159E-01
880,83	7,2556E-01
881,14	7,6015E-01
881,45	6,5955E-01
881,76	4,4032E-01
882,07	1,3567E-01
882,37	-1,3569E-01
882,68	-3,5637E-01
882,99	-6,6192E-01
883,30	-5,2659E-01
883,61	6,8106E-02
883,92	4,7623E-01
884,23	7,9977E-01
884,54	1,0545E00
884,85	1,0588E00
885,16	1,1120E00
885,47	8,7423E-01
885,77	1,3397E00
886,08	1,4606E00
886,39	1,6299E00
886,70	1,1657E00
887,01	1,1294E00
887,32	1,2148E00
887,63	6,4660E-01
887,93	4,2582E-01
888,24	1,5327E-01
888,55	-6,8508E-02
888,86	-1,8817E-01
889,17	-5,9962E-01
889,47	1,5399E-01
889,78	3,9417E-01
890,09	-1,2006E-01
890,40	-1,2014E-01
890,71	-2,9219E-01
891,01	3,4285E-02
891,32	-5,1389E-01
891,63	-8,5678E-02
891,94	-2,0596E-01
892,25	7,3853E-01
892,55	-2,5786E-01
892,86	-3,2650E-01
893,17	-9,4501E-01
893,48	2,0566E-01
893,78	7,5441E-01
894,09	9,2641E-01
894,40	9,8156E-01
894,70	1,1538E00
895,01	1,1382E00
895,32	-1,2052E-01
895,63	-6,2179E-01
895,93	-3,4562E-01
896,24	-2,0761E-01
896,55	-3,8093E-01
896,85	-1,3842E00
897,16	-8,9927E-01
897,47	-8,6507E-02
897,77	5,5573E-01
898,08	3,4904E-01
898,39	2,4510E-01
898,69	6,1499E-01
899,00	5,9705E-01
899,31	3,3482E-01
899,61	-1,0582E-01
899,92	2,2985E-01
900,23	-3,1883E-01
900,53	-3,5479E-02
900,84	4,0983E-01
901,14	8,5331E-01
901,45	1,1215E00
901,76	1,7813E-02
902,06	1,7891E-01
902,37	1,7941E-01
902,67	9,0151E-01
902,98	7,2373E-01
903,29	5,4420E-02
903,59	2,0004E-01
903,90	1,2768E-01
904,20	3,6664E-02
904,51	-7,1628E-01
904,81	-6,9988E-01
905,12	-7,9393E-01
905,42	-4,2587E-01
905,73	-4,6405E-01
906,03	-5,5898E-01
906,34	-8,0501E-01
906,64	-4,5072E-01
906,95	-1,5059E-01
907,25	4,1550E-01
907,56	3,0381E-01
907,86	1,1827E00
908,17	1,5151E00
908,47	1,6572E00
908,78	1,4920E00
909,08	7,3880E-01
909,39	6,8431E-01
909,69	8,2598E-01
910,00	1,1470E00
910,30	1,8304E00
910,61	1,5939E00
910,91	1,4013E00
911,21	-6,0286E-02
911,52	-1,1149E00
911,82	-1,3224E00
912,13	-5,9060E-01
912,43	2,2497E-01
912,74	1,0284E-01
913,04	-4,5617E-01
913,34	-6,4528E-01
913,65	-1,4683E-01
913,95	-3,9995E-01
914,25	-5,2816E-01
914,56	-1,4828E-01
914,86	3,8424E-01
915,17	-1,9363E-01
915,47	-1,4302E00
915,77	-1,6985E00
916,08	-4,6017E-01
916,38	-7,0248E-01
916,68	-1,1017E-01
916,99	3,3081E-01
917,29	1,5108E00
917,59	7,1531E-01
917,90	-6,0714E-01
918,20	-1,0572E00
918,50	-1,3552E00
918,80	-8,8566E-01
919,11	-1,0302E00
919,41	-7,3677E-01
919,71	-9,0105E-01
920,02	-8,5726E-01
920,32	-3,4876E-01
920,62	-1,3361E00
920,92	-1,1353E00
921,23	-7,6195E-01
921,53	3,1103E-01
921,83	-8,4170E-01
922,13	-1,5734E00
922,44	-2,0701E00
922,74	-8,5634E-01
923,04	-1,4719E-01
923,34	-1,9703E-01
923,64	-3,4615E-01
923,95	-1,0942E00
924,25	-1,7533E-01
924,55	-7,0752E-01
924,85	-6,3535E-01
925,15	-1,9367E00
925,46	-1,3309E00
925,76	-1,1847E00
926,06	3,8953E-01
926,36	7,0384E-01
926,66	6,0410E-01
926,96	3,1700E-01
927,26	-2,1303E-01
927,57	5,0828E-01
927,87	-1,8819E-01
928,17	-1,3519E-01
928,47	2,7150E-02
928,77	5,7347E-01
929,07	9,6153E-01
929,37	7,1835E-01
929,67	8,6338E-01
929,98	1,6777E00
930,28	1,4685E00
930,58	1,9007E00
930,88	2,4061E00
931,18	3,4558E00
931,48	2,9856E00
931,78	1,6898E00
932,08	6,4444E-01
932,38	8,8512E-01
932,68	6,2330E-01
932,98	2,3929E-01
933,28	-1,1141E00
933,58	-1,3931E00
933,88	-6,6902E-01
934,18	-3,0607E-02
934,48	1,2338E-01
934,78	-4,9652E-01
935,08	-9,3661E-01
935,38	-9,0986E-01
935,68	-1,1051E00
935,98	-6,6740E-01
936,28	8,0041E-01
936,58	1,1916E00
936,88	1,7466E00
937,18	1,6270E-01
937,48	0,0000E00
937,78	-2,6382E-01
938,08	1,2573E00
938,38	1,4338E00
938,68	1,6068E00
938,98	1,4532E00
939,28	1,3939E00
939,57	5,8177E-01
939,87	4,1279E-01
940,17	3,8109E-01
940,47	4,5361E-01
940,77	-1,0892E00
941,07	-1,5546E00
941,37	-2,1344E00
941,67	-2,3617E00
941,97	-3,7859E00
942,26	-2,5768E00
942,56	-1,6081E00
942,86	-5,5051E-01
943,16	-7,7586E-01
943,46	-1,5995E00
943,76	2,6207E-01
944,06	-4,1367E-01
944,35	-3,7866E-01
944,65	2,2871E-01
944,95	2,0022E00
945,25	2,5896E00
945,55	3,1146E-01
945,84	-1,7201E00
946,14	-3,1543E00
946,44	-2,5780E00
946,74	-2,2782E00
947,03	7,2410E-01
947,33	9,3312E-01
947,63	1,4689E00
947,93	3,2821E-01
948,23	1,1944E00
948,52	-9,1454E-01
948,82	-1,6781E-01
949,12	-1,5656E00
949,41	-3,8379E-01
949,71	-2,3569E00
950,01	-9,5048E-01
950,31	-1,3885E00
950,60	-4,3756E-02
950,90	-8,8187E-02
951,20	1,8217E00
951,49	1,5641E00
951,79	2,0644E00
952,09	2,3943E00
952,38	4,4620E00
952,68	5,6080E00
952,98	4,6310E00
953,27	3,1652E00
953,57	1,2166E00
953,87	3,5802E00
954,16	3,5164E00
954,46	2,2975E00
954,76	-4,3327E-01
955,05	1,4545E-01
955,35	1,2219E00
955,64	6,8919E-01
955,94	-1,1905E00
956,24	-1,5440E00
956,53	1,6042E00
956,83	9,0592E-01
957,12	4,5722E-01
957,42	-1,9441E00
957,72	4,6384E-01
958,01	-4,6648E-01
958,31	-5,7413E-01
958,60	-1,5274E00
958,90	-7,9454E-01
959,19	2,6729E-01
959,49	1,5085E00
959,78	2,5023E00
960,08	-6,0242E-01
960,37	-2,5344E00
960,67	-2,9389E00
960,96	2,2357E-01
961,26	9,5863E-01
961,55	1,1356E-01
961,85	-5,6942E-01
962,14	-3,3815E00
962,44	-2,0785E00
962,73	-2,4536E00
963,03	-6,4588E-01
963,32	-2,7838E00
963,62	-2,1452E00
963,91	-1,9860E00
964,21	-2,1767E00
964,50	-3,3433E00
964,80	-4,2205E00
965,09	-2,5963E00
965,38	1,0578E00
965,68	1,7550E00
965,97	4,2884E00
966,27	-6,3621E-02
966,56	1,2817E00
966,85	1,1600E00
967,15	2,9204E00
967,44	3,1361E00
967,74	1,2531E00
968,03	1,2634E00
968,32	-1,9407E00
968,62	3,3638E-01
968,91	-3,3898E-01
969,20	3,4813E00
969,50	1,3083E00
969,79	2,7690E00
970,08	6,2946E-01
970,38	7,0438E-01
970,67	9,9487E-01
970,96	2,2904E00
971,26	7,2299E-01
971,55	-2,1177E00
971,84	-2,0612E00
972,13	6,6823E-01
972,43	6,7444E-01
972,72	2,5687E00
973,01	2,1260E00
973,31	2,8220E00
973,60	1,5408E00
973,89	2,3353E-01
974,18	3,1460E-01
974,48	-1,4264E00
974,77	-1,5963E-01
975,06	2,4209E00
975,35	2,6056E00
975,64	8,2051E-02
975,94	-4,0403E00
976,23	-3,1531E00
976,52	-1,6729E-01
976,81	4,0500E00
977,10	3,0665E00
977,40	-1,7208E00
977,69	-3,2992E00
977,98	-8,7584E-01
978,27	3,2720E00
978,56	3,7492E00
978,86	4,8675E00
979,15	4,7060E00
979,44	4,6451E00
979,73	4,4793E00
980,02	4,1574E00
980,31	6,9899E00
980,60	3,7721E00
980,89	4,8435E00
981,19	1,3392E00
981,48	2,8918E00
981,77	2,8684E-14
982,06	1,8759E00
982,35	2,6916E00
982,64	5,1157E00
982,93	1,6188E00
983,22	-1,0183E00
983,51	-3,6931E00
983,80	-7,2498E-01
984,09	-1,0493E00
984,38	9,5402E-01
984,67	-1,0702E00
984,96	-2,4794E00
985,25	-7,2780E00
985,55	-8,0868E00
985,84	-7,3718E00
986,13	-1,2221E00
986,42	3,4823E00
986,71	3,9658E00
987,00	3,8847E00
987,29	3,6926E00
987,58	3,7312E00
987,86	4,7129E-01
988,15	-3,6707E00
988,44	-1,7911E00
988,73	-1,3263E00
989,02	-2,4419E-01
989,31	-4,0721E00
989,60	-2,6146E00
989,89	-1,5070E00
990,18	2,9127E00
990,47	-1,5319E00
990,76	-3,7346E00
991,05	-5,9768E00
991,34	-3,6764E00
991,63	-6,3719E00
991,92	-8,0614E-01
992,20	1,2150E00
992,49	3,5443E00
992,78	-4,9470E00
993,07	-1,9495E00
993,36	-2,5215E00
993,65	3,2632E00
993,94	4,3043E-01
994,22	8,1268E00
994,51	8,3492E00
994,80	1,0205E01
995,09	6,7415E00
995,38	5,8833E00
995,67	9,4364E00
995,95	1,0117E01
996,24	1,2400E01
996,53	5,7953E00
996,82	3,3353E00
997,11	-3,3577E00
997,39	-3,2356E00
997,68	-6,4953E00
997,97	-3,1244E00
998,26	-3,1520E00
998,54	1,1799E00
998,83	-2,3814E00
999,12	-3,5991E00
999,41	-8,8059E00
999,69	-5,5842E00
999,98	-7,5814E00
1000,27	-6,7797E00
1000,56	-5,5835E00
1000,84	2,9064E00
1001,13	9,3270E00
1001,42	1,6044E01
1001,70	1,0231E01
1001,99	9,9518E00
1002,28	-3,2283E00
1002,56	3,8631E-01
1002,85	-4,8918E00
1003,14	1,1862E00
1003,42	-4,9722E00
1003,71	6,6271E00
1004,00	6,5040E00
1004,28	7,5884E00
1004,57	-2,8977E00
1004,86	-3,1250E00
1005,14	-5,0737E00
1005,43	-1,3016E01
1005,72	-1,6002E01
1006,00	-7,8417E00
1006,29	-2,2045E00
1006,57	2,4533E00
1006,86	-4,0558E00
1007,15	3,8828E00
1007,43	2,5490E00
1007,72	5,4057E00
1008,00	-1,0953E01
1008,29	-1,2745E01
1008,57	-1,0690E01
1008,86	-4,9129E-01
1009,14	-8,9585E00
1009,43	-3,0396E00
1009,71	1,7949E00
1010,00	1,5223E01
1010,29	-5,2032E00
1010,57	-6,5902E00
1010,86	-1,0662E01
1011,14	-3,7847E00
1011,43	-1,0656E01
1011,71	-8,0549E00
1011,99	-1,1242E01
1012,28	-5,9493E00
1012,56	-4,5691E00
1012,85	1,0377E01
1013,13	1,0534E01
1013,42	-2,6650E00
1013,70	-1,7414E01
1013,99	-2,0618E01
1014,27	-1,4763E01
1014,56	-3,0975E00
1014,84	1,8778E00
1015,12	2,4318E01
1015,41	2,5958E01
1015,69	3,3407E01
1015,98	2,1645E01
1016,26	1,9822E01
1016,54	1,0705E01
1016,83	9,5207E00
1017,11	7,2248E00
1017,39	1,4240E01
1017,68	9,0988E00
1017,96	7,1267E00
1018,25	9,4035E00
1018,53	-4,0266E00
1018,81	-1,5931E01
1019,10	-1,7580E01
1019,38	-5,2839E00
1019,66	1,2152E01
1019,94	3,4352E00
1020,23	6,9877E00
1020,51	1,2124E01
1020,79	1,7077E01
1021,08	1,6016E01
1021,36	1,1686E01
1021,64	1,6236E00
1021,93	5,3215E00
1022,21	-7,5261E00
1022,49	-7,5261E00
>>>>>End Processed Spectral Data<<<<<
