SpectraSuite Data File
++++++++++++++++++++++++++++++++++++
Date: Tue Jan 01 00:56:47 EET 1980
User: mkilpela
Dark Spectrum Present: Yes
Reference Spectrum Present: No
Number of Sampled Component Spectra: 1
Spectrometers: JAZA2845
Integration Time (usec): 50000 (JAZA2845)
Spectra Averaged: 1 (JAZA2845)
Boxcar Smoothing: 0 (JAZA2845)
Correct for Electrical Dark: No (JAZA2845)
Strobe/Lamp Enabled: No (JAZA2845)
Correct for Detector Non-linearity: No (JAZA2845)
Correct for Stray Light: No (JAZA2845)
Number of Pixels in Processed Spectrum: 2048
>>>>>Begin Processed Spectral Data<<<<<
340,21	-0,0000E00
340,58	-0,0000E00
340,96	-0,0000E00
341,33	0,0000E00
341,70	-0,0000E00
342,07	-0,0000E00
342,45	-0,0000E00
342,82	-0,0000E00
343,19	-0,0000E00
343,57	0,0000E00
343,94	-0,0000E00
344,31	-0,0000E00
344,68	0,0000E00
345,06	-0,0000E00
345,43	-0,0000E00
345,80	-0,0000E00
346,18	0,0000E00
346,55	-0,0000E00
346,92	0,0000E00
347,29	0,0000E00
347,67	-0,0000E00
348,04	0,0000E00
348,41	-0,0000E00
348,78	-0,0000E00
349,16	-0,0000E00
349,53	-0,0000E00
349,90	0,0000E00
350,27	4,5761E-02
350,64	-2,0547E-02
351,02	-3,3993E-02
351,39	4,6286E-02
351,76	1,0055E-01
352,13	1,3923E-01
352,51	-9,4391E-02
352,88	-1,9494E-01
353,25	-2,1441E-02
353,62	-1,2492E-01
353,99	1,5687E-02
354,37	-2,9825E-01
354,74	8,4667E-01
355,11	-5,3307E-02
355,48	4,8625E-02
355,85	8,3948E-03
356,23	-9,0545E-02
356,60	-1,7897E-01
356,97	-3,6118E-02
357,34	-1,1469E-01
357,71	-1,9941E-01
358,08	-5,5403E-02
358,46	-3,5920E-02
358,83	3,0979E-02
359,20	2,9055E-02
359,57	-6,4141E-02
359,94	1,9788E-01
360,31	7,2229E-02
360,69	1,5998E-01
361,06	1,4697E-01
361,43	-7,3999E-02
361,80	1,9297E-01
362,17	3,6015E-02
362,54	2,3809E-02
362,91	9,9750E-02
363,29	-5,0545E-01
363,66	2,9825E-01
364,03	-7,8358E-02
364,40	-8,1186E-03
364,77	0,0000E00
365,14	1,8402E-02
365,51	5,6334E-02
365,88	5,4150E-02
366,26	8,3802E-02
366,63	1,7491E-01
367,00	3,6897E-02
367,37	-2,0456E-01
367,74	-2,6258E-01
368,11	-1,1112E-01
368,48	-1,4836E-01
368,85	-1,1860E-02
369,22	-8,0195E-02
369,59	-6,2849E-02
369,97	-9,6562E-02
370,34	-1,4655E-01
370,71	0,0000E00
371,08	1,6154E-01
371,45	-6,9150E-03
371,82	-2,3098E-01
372,19	-4,7878E-01
372,56	2,2134E-02
372,93	-2,3865E-02
373,30	-2,4875E-02
373,67	1,8963E-01
374,04	0,0000E00
374,41	7,0112E-02
374,78	2,5017E-01
375,15	2,3398E-01
375,52	2,2792E-01
375,89	1,3369E-01
376,26	0,0000E00
376,63	-8,5448E-03
377,00	-1,2812E-01
377,38	1,7133E-02
377,75	-3,8265E-02
378,12	4,6891E-01
378,49	-6,6875E-02
378,86	-1,7394E-01
379,23	1,2155E-01
379,60	-7,4913E-02
379,97	-4,4070E-02
380,34	4,4887E-02
380,71	-5,4298E-02
381,08	-6,8486E-02
381,45	-1,2392E-02
381,82	4,7805E-02
382,19	-3,4748E-02
382,55	-6,6191E-02
382,92	1,7604E-01
383,29	-3,8400E-02
383,66	1,5758E-01
384,03	3,1155E-01
384,40	2,0517E-01
384,77	-1,0831E-01
385,14	4,3972E-02
385,51	-2,4370E-02
385,88	-2,2821E-02
386,25	6,5369E-02
386,62	-2,2731E-01
386,99	-1,7707E-01
387,36	-1,8664E-01
387,73	-4,1535E-03
388,10	6,3317E-02
388,47	-4,6272E-02
388,84	-6,7025E-02
389,21	8,0009E-02
389,58	7,7600E-02
389,94	4,2568E-02
390,31	-3,1616E-02
390,68	1,7854E-01
391,05	7,9732E-02
391,42	1,8354E-02
391,79	1,4047E-01
392,16	-7,7120E-02
392,53	-1,2221E-01
392,90	5,1272E-03
393,27	1,3242E-02
393,63	-2,4794E-02
394,00	-2,5471E-02
394,37	9,2913E-02
394,74	6,5866E-02
395,11	1,5268E-01
395,48	1,8115E-01
395,85	1,1410E-01
396,22	2,5635E-02
396,58	-6,8861E-03
396,95	2,6494E-02
397,32	-2,0747E-02
397,69	0,0000E00
398,06	-2,3197E-02
398,43	2,2578E-02
398,80	1,0691E-01
399,16	1,5867E-01
399,53	-9,1302E-02
399,90	-5,3782E-02
400,27	-2,9700E-02
400,64	1,1821E-01
401,01	3,5605E-02
401,37	-3,5220E-02
401,74	1,7138E-01
402,11	-8,7858E-03
402,48	1,7252E-01
402,85	6,3689E-02
403,22	-1,7461E-01
403,58	-1,8099E-02
403,95	3,1396E-02
404,32	2,0451E-02
404,69	3,2938E-02
405,06	-3,1169E-02
405,42	-1,2454E-01
405,79	-1,3240E-01
406,16	1,5948E-01
406,53	6,3522E-02
406,89	7,2848E-02
407,26	1,0363E-01
407,63	-6,2313E-02
408,00	-1,6179E-01
408,37	1,1134E-01
408,73	1,2854E-01
409,10	1,7132E-01
409,47	5,0153E-02
409,84	2,6851E-02
410,20	1,1354E-01
410,57	-3,2182E-02
410,94	2,3385E-02
411,31	1,0802E-01
411,67	7,2346E-02
412,04	8,4098E-02
412,41	1,1327E-01
412,77	2,9046E-02
413,14	1,5483E-02
413,51	0,0000E00
413,88	5,1507E-02
414,24	-4,2985E-02
414,61	-1,9994E-02
414,98	6,5854E-02
415,34	-1,0311E-01
415,71	3,2532E-03
416,08	1,3706E-01
416,45	1,1769E-01
416,81	-2,2624E-02
417,18	-3,1087E-03
417,55	1,8087E-01
417,91	6,6261E-02
418,28	7,4245E-02
418,65	2,4139E-01
419,01	1,2450E-01
419,38	2,1267E-01
419,75	1,2165E-01
420,11	1,9429E-01
420,48	2,2695E-01
420,85	2,5781E-01
421,21	2,8918E-01
421,58	4,0096E-01
421,95	3,6453E-01
422,31	3,7494E-01
422,68	4,8860E-01
423,05	5,8306E-01
423,41	6,3836E-01
423,78	6,4619E-01
424,15	7,2175E-01
424,51	8,2498E-01
424,88	9,3813E-01
425,24	1,1292E00
425,61	1,0885E00
425,98	1,3491E00
426,34	1,4579E00
426,71	1,6000E00
427,07	1,5903E00
427,44	1,9091E00
427,81	2,1520E00
428,17	2,3163E00
428,54	2,2220E00
428,90	2,6025E00
429,27	2,5578E00
429,64	2,8115E00
430,00	3,1390E00
430,37	3,7096E00
430,73	3,6307E00
431,10	4,0062E00
431,46	4,0831E00
431,83	4,4642E00
432,20	4,6841E00
432,56	5,3396E00
432,93	5,8294E00
433,29	6,0583E00
433,66	6,8006E00
434,02	6,8827E00
434,39	6,9697E00
434,75	8,1384E00
435,12	8,4834E00
435,49	9,1511E00
435,85	9,4668E00
436,22	1,0342E01
436,58	1,1619E01
436,95	1,1689E01
437,31	1,2996E01
437,68	1,3457E01
438,04	1,5458E01
438,41	1,5220E01
438,77	1,5801E01
439,14	1,6715E01
439,50	1,7442E01
439,87	1,8788E01
440,23	2,0129E01
440,60	2,1016E01
440,96	2,0864E01
441,33	2,1296E01
441,69	2,3516E01
442,06	2,4706E01
442,42	2,4847E01
442,78	2,6565E01
443,15	2,6774E01
443,51	2,7734E01
443,88	2,8551E01
444,24	2,8336E01
444,61	2,9569E01
444,97	3,0918E01
445,34	3,1372E01
445,70	3,1676E01
446,07	3,1929E01
446,43	3,3705E01
446,79	3,5389E01
447,16	3,5313E01
447,52	3,7963E01
447,89	3,7690E01
448,25	3,6916E01
448,62	3,9975E01
448,98	3,9207E01
449,34	3,9268E01
449,71	4,0741E01
450,07	3,9486E01
450,44	4,0896E01
450,80	4,0675E01
451,16	4,1183E01
451,53	4,2307E01
451,89	4,1708E01
452,25	4,1509E01
452,62	4,1392E01
452,98	4,1063E01
453,35	3,9736E01
453,71	3,9617E01
454,07	3,8266E01
454,44	3,9625E01
454,80	3,7611E01
455,16	3,6955E01
455,53	3,5713E01
455,89	3,4860E01
456,25	3,4763E01
456,62	3,3606E01
456,98	3,1947E01
457,34	3,1730E01
457,71	2,9260E01
458,07	2,7511E01
458,43	2,7688E01
458,80	2,6298E01
459,16	2,3963E01
459,52	2,4009E01
459,89	2,3512E01
460,25	2,2534E01
460,61	2,0252E01
460,98	1,9922E01
461,34	1,8905E01
461,70	1,8004E01
462,07	1,7157E01
462,43	1,6360E01
462,79	1,5733E01
463,15	1,4948E01
463,52	1,4576E01
463,88	1,3537E01
464,24	1,3209E01
464,61	1,2369E01
464,97	1,2070E01
465,33	1,1592E01
465,69	1,0917E01
466,06	1,0501E01
466,42	9,8030E00
466,78	9,4718E00
467,14	9,0194E00
467,51	8,2542E00
467,87	7,9590E00
468,23	7,5216E00
468,59	7,0014E00
468,95	6,4004E00
469,32	5,9315E00
469,68	5,4293E00
470,04	4,9395E00
470,40	4,4965E00
470,77	4,2004E00
471,13	3,7558E00
471,49	3,4311E00
471,85	3,1968E00
472,21	2,6844E00
472,58	2,2907E00
472,94	1,9940E00
473,30	1,7464E00
473,66	1,4913E00
474,02	1,1227E00
474,39	8,9458E-01
474,75	7,4161E-01
475,11	5,1205E-01
475,47	3,4457E-01
475,83	2,9298E-01
476,19	2,0978E-01
476,56	1,4468E-01
476,92	1,0291E-01
477,28	7,5014E-02
477,64	5,6357E-02
478,00	1,7479E-02
478,36	7,0558E-02
478,72	7,1616E-02
479,09	3,5462E-02
479,45	7,6717E-02
479,81	3,6381E-02
480,17	4,3375E-02
480,53	8,4630E-02
480,89	2,0606E-02
481,25	1,1553E-03
481,61	3,9944E-02
481,97	-8,9732E-03
482,34	-1,7676E-02
482,70	1,7890E-02
483,06	5,3736E-02
483,42	5,2399E-02
483,78	1,0733E-02
484,14	2,3171E-02
484,50	8,6572E-03
484,86	3,1851E-03
485,22	4,4529E-02
485,58	2,7027E-02
485,94	-2,5478E-02
486,31	2,3355E-02
486,67	-1,1303E-02
487,03	-4,1347E-03
487,39	2,3353E-02
487,75	4,0491E-03
488,11	3,0899E-02
488,47	3,0526E-03
488,83	4,4985E-02
489,19	2,9139E-02
489,55	-2,0935E-02
489,91	9,8330E-03
490,27	-1,9837E-03
490,63	2,0553E-02
490,99	2,3683E-02
491,35	1,3931E-02
491,71	2,2969E-02
492,07	-5,7290E-03
492,43	-2,3703E-02
492,79	9,6015E-03
493,15	-3,7800E-03
493,51	-8,5095E-03
493,87	9,3984E-04
494,23	2,3755E-02
494,59	-1,4040E-02
494,95	5,0995E-02
495,31	6,4225E-03
495,67	5,2706E-02
496,03	3,0419E-02
496,39	-1,2773E-02
496,75	-4,5244E-03
497,11	3,6594E-02
497,47	1,1512E-02
497,83	2,3190E-02
498,19	8,9108E-03
498,55	1,6852E-02
498,91	-7,9233E-03
499,27	5,2736E-03
499,63	1,3042E-02
499,98	2,2455E-02
500,34	6,8187E-03
500,70	4,3047E-03
501,06	2,3872E-02
501,42	-1,6983E-03
501,78	-1,7118E-03
502,14	2,5238E-03
502,50	6,6363E-03
502,86	8,2161E-03
503,22	9,1052E-03
503,58	8,2509E-03
503,94	-7,4613E-03
504,29	2,7934E-02
504,65	1,4797E-02
505,01	1,6422E-03
505,37	2,9703E-02
505,73	2,4327E-02
506,09	-1,1360E-02
506,45	-8,1089E-03
506,81	7,9897E-03
507,16	1,4384E-02
507,52	1,5239E-02
507,88	-8,8968E-03
508,24	6,4285E-03
508,60	-7,8781E-03
508,96	1,7371E-02
509,32	6,3736E-03
509,67	7,8992E-04
510,03	-1,5957E-03
510,39	1,0310E-02
510,75	-2,6721E-02
511,11	-1,7375E-02
511,47	-1,0333E-02
511,82	-1,2754E-02
512,18	-1,2660E-02
512,54	1,2055E-02
512,90	5,5233E-03
513,26	7,9940E-04
513,61	-2,3743E-03
513,97	3,1700E-03
514,33	-2,2960E-02
514,69	-2,9316E-02
515,05	-3,1281E-03
515,40	-3,2275E-03
515,76	-9,4758E-03
516,12	2,3699E-03
516,48	2,2835E-02
516,83	-7,2102E-03
517,19	4,0359E-02
517,55	4,1522E-02
517,91	-6,3240E-03
518,26	3,9299E-03
518,62	1,1849E-02
518,98	2,0763E-02
519,34	-1,8312E-02
519,69	8,5180E-03
520,05	5,5088E-03
520,41	7,1977E-03
520,77	6,2723E-03
521,12	-3,9585E-03
521,48	9,5045E-03
521,84	2,9514E-02
522,19	-1,9937E-02
522,55	-2,3926E-03
522,91	-3,1701E-03
523,27	-2,3667E-03
523,62	1,6607E-02
523,98	1,7465E-02
524,34	7,8316E-03
524,69	1,3561E-02
525,05	-3,9614E-03
525,41	-1,3538E-02
525,76	3,1600E-02
526,12	2,8408E-02
526,48	2,9887E-02
526,83	-1,7395E-02
527,19	1,5730E-03
527,55	1,2448E-02
527,90	-9,3738E-03
528,26	-5,4998E-03
528,62	1,3266E-02
528,97	1,5835E-03
529,33	-5,4524E-03
529,69	-2,1704E-02
530,04	-8,5730E-03
530,40	-1,5641E-02
530,76	-1,5418E-03
531,11	-1,6082E-02
531,47	-1,3091E-02
531,82	1,5726E-02
532,18	2,0087E-02
532,54	1,3940E-02
532,89	4,5745E-03
533,25	2,4040E-02
533,60	-1,3805E-02
533,96	-1,6985E-02
534,32	2,5972E-02
534,67	4,5817E-03
535,03	9,3068E-03
535,38	2,0852E-02
535,74	7,6196E-03
536,10	7,5962E-03
536,45	-1,0463E-02
536,81	7,6080E-04
537,16	1,9522E-02
537,52	-1,0659E-02
537,87	-1,2156E-02
538,23	0,0000E00
538,58	9,0105E-03
538,94	-5,3151E-03
539,30	2,1409E-02
539,65	-5,1796E-03
540,01	0,0000E00
540,36	-1,9399E-02
540,72	-2,6701E-02
541,07	-8,1520E-03
541,43	1,5436E-02
541,78	-6,6293E-03
542,14	-1,8109E-02
542,49	-1,6844E-02
542,85	-5,8279E-03
543,20	-4,4193E-03
543,56	-1,4770E-03
543,91	7,2576E-03
544,27	-6,5335E-03
544,62	9,5025E-03
544,98	9,5259E-03
545,33	5,0519E-03
545,69	7,3180E-03
546,04	-7,9690E-03
546,40	1,0904E-02
546,75	-2,8525E-03
547,10	6,5235E-03
547,46	7,8909E-03
547,81	1,9477E-02
548,17	-1,2150E-02
548,52	-1,4897E-02
548,88	9,4264E-03
549,23	8,4989E-03
549,59	-4,9558E-03
549,94	-2,6313E-02
550,29	8,5154E-03
550,65	-2,1471E-03
551,00	-1,5520E-02
551,36	1,7652E-02
551,71	6,3948E-03
552,06	1,9856E-02
552,42	1,4260E-03
552,77	6,3467E-03
553,13	7,0750E-04
553,48	5,6499E-03
553,83	-1,8339E-02
554,19	9,1040E-03
554,54	2,2517E-02
554,90	2,1099E-03
555,25	2,0590E-02
555,60	-2,6997E-02
555,96	2,1208E-02
556,31	2,2706E-02
556,66	-8,5248E-03
557,02	-1,4923E-02
557,37	-2,7629E-02
557,72	4,9924E-03
558,08	-1,6998E-02
558,43	-2,2141E-02
558,79	-2,8608E-02
559,14	-1,5810E-02
559,49	-2,8615E-03
559,85	-8,5984E-03
560,20	1,2922E-02
560,55	-3,5696E-03
560,90	-1,4346E-03
561,26	-8,6421E-03
561,61	3,2238E-02
561,96	-1,4419E-03
562,32	2,1916E-03
562,67	-1,2468E-02
563,02	-1,8704E-02
563,38	-1,3098E-02
563,73	1,4521E-02
564,08	1,3850E-02
564,43	-2,1985E-03
564,79	6,6369E-03
565,14	-2,3276E-02
565,49	-2,2066E-03
565,84	-7,3633E-04
566,20	-2,9598E-02
566,55	-1,4851E-03
566,90	1,0425E-02
567,25	-8,9304E-03
567,61	8,2249E-03
567,96	2,1044E-02
568,31	-1,7331E-02
568,66	1,5745E-02
569,02	2,9475E-02
569,37	-1,5137E-02
569,72	-2,2571E-03
570,07	-7,5262E-04
570,42	-3,0386E-03
570,78	-2,2936E-02
571,13	3,2789E-02
571,48	4,0337E-02
571,83	3,8514E-03
572,18	-5,3585E-03
572,54	-3,0075E-02
572,89	8,5116E-03
573,24	2,2959E-03
573,59	-7,7086E-04
573,94	-1,5855E-02
574,30	1,7501E-02
574,65	-1,7540E-02
575,00	1,8328E-02
575,35	-3,8557E-03
575,70	-7,8349E-04
576,05	2,8238E-02
576,40	5,4368E-03
576,76	-1,5530E-02
577,11	1,4783E-02
577,46	-7,6946E-04
577,81	3,0915E-03
578,16	1,3936E-02
578,51	-1,8514E-02
578,86	-2,6335E-02
579,21	1,5544E-03
579,57	-1,5526E-02
579,92	7,7800E-03
580,27	6,2836E-03
580,62	-2,3571E-03
580,97	-6,1884E-03
581,32	1,7913E-02
581,67	1,4820E-02
582,02	6,2552E-03
582,37	1,0873E-02
582,72	-8,5161E-03
583,08	3,8835E-03
583,43	6,2547E-03
583,78	-5,5284E-03
584,13	-2,9668E-02
584,48	-1,8677E-02
584,83	-1,4031E-02
585,18	-2,9642E-02
585,53	-3,0116E-02
585,88	-2,8968E-02
586,23	-1,3333E-02
586,58	-8,6569E-03
586,93	-7,7734E-03
587,28	1,5725E-02
587,63	1,8753E-02
587,98	-1,1693E-02
588,33	4,6374E-03
588,68	2,3448E-03
589,03	1,5567E-03
589,38	3,9047E-03
589,73	1,0162E-02
590,08	7,8897E-03
590,43	2,2695E-02
590,78	1,8728E-02
591,13	-7,7875E-03
591,48	3,1178E-03
591,83	-9,3556E-03
592,18	1,7206E-02
592,53	-1,3332E-02
592,88	2,3445E-02
593,23	2,5757E-02
593,58	1,5727E-03
593,93	-3,1768E-03
594,28	-2,1180E-02
594,63	-3,9704E-03
594,98	8,6030E-03
595,33	1,0190E-02
595,68	6,3179E-03
596,02	5,0293E-02
596,37	1,9867E-02
596,72	-1,2713E-02
597,07	-2,8509E-02
597,42	-1,1064E-02
597,77	-2,1343E-02
598,12	3,9552E-03
598,47	-7,1731E-03
598,82	-8,7259E-03
599,17	-2,2351E-02
599,52	1,0341E-02
599,86	-1,2719E-02
600,21	8,8442E-03
600,56	-2,4095E-03
600,91	-1,1209E-02
601,26	7,2917E-03
601,61	8,0158E-04
601,96	-4,0201E-03
602,30	-2,8118E-02
602,65	-2,3416E-02
603,00	2,0181E-02
603,35	-1,2159E-02
603,70	1,4539E-02
604,05	1,7039E-02
604,40	5,7549E-03
604,74	3,2509E-03
605,09	1,6274E-03
605,44	8,1900E-04
605,79	-1,4015E-02
606,14	-7,4609E-03
606,48	-1,0736E-02
606,83	9,8817E-03
607,18	-1,6501E-03
607,53	2,5079E-02
607,88	-8,2892E-03
608,22	0,0000E00
608,57	1,2537E-02
608,92	-1,6844E-03
609,27	1,5162E-02
609,62	1,5316E-02
609,96	1,4338E-02
610,31	1,7837E-02
610,66	-1,1070E-02
611,01	2,4859E-02
611,35	-2,5749E-03
611,70	9,4293E-03
612,05	3,5169E-02
612,40	1,7209E-02
612,74	-4,3255E-03
613,09	-9,5950E-03
613,44	-3,3084E-02
613,79	-1,9160E-02
614,13	-6,9707E-03
614,48	1,9341E-02
614,83	6,1492E-03
615,17	3,2641E-02
615,52	-3,4573E-02
615,87	-1,6643E-02
616,22	1,4219E-02
616,56	3,1202E-02
616,91	8,9692E-04
617,26	3,2967E-02
617,60	8,0371E-03
617,95	3,4881E-02
618,30	4,4832E-02
618,64	9,0159E-04
618,99	-3,6001E-03
619,34	-1,5422E-02
619,68	-1,5411E-02
620,03	-1,8236E-03
620,38	3,1982E-02
620,72	-2,7228E-02
621,07	1,9277E-02
621,42	-2,5622E-02
621,76	-5,5511E-02
622,11	-2,7658E-02
622,45	-6,4375E-03
622,80	8,3521E-03
623,15	-3,3526E-02
623,49	-1,4735E-02
623,84	-1,8640E-02
624,18	-1,6881E-02
624,53	-9,2640E-03
624,88	7,4097E-03
625,22	-6,5797E-03
625,57	2,1567E-02
625,91	1,0342E-02
626,26	-7,5355E-03
626,61	1,9754E-02
626,95	9,4491E-03
627,30	3,7911E-03
627,64	3,4691E-02
627,99	2,1784E-02
628,33	1,1366E-02
628,68	-9,5449E-04
629,03	-8,5905E-03
629,37	-7,6035E-03
629,72	8,6659E-03
630,06	2,8881E-03
630,41	-7,7042E-03
630,75	1,8380E-02
631,10	-1,3573E-02
631,44	-1,9402E-02
631,79	3,5152E-02
632,13	-5,8628E-03
632,48	2,4321E-02
632,82	-9,7073E-04
633,17	-5,8957E-03
633,51	-1,2644E-02
633,86	6,8182E-03
634,20	2,4552E-02
634,55	2,1411E-02
634,89	-1,4769E-02
635,24	2,4509E-02
635,58	1,8614E-02
635,93	1,7877E-02
636,27	1,0909E-02
636,62	-8,8778E-03
636,96	-2,9580E-03
637,30	1,7798E-02
637,65	-9,9179E-04
637,99	7,9780E-03
638,34	-4,9629E-03
638,68	-3,9945E-03
639,03	2,9857E-03
639,37	-1,5091E-02
639,71	7,0874E-03
640,06	-2,3034E-02
640,40	-8,0228E-03
640,75	1,7049E-02
641,09	-2,8285E-02
641,44	2,8506E-02
641,78	2,4241E-02
642,12	1,4345E-02
642,47	2,5091E-02
642,81	4,6589E-02
643,15	7,1184E-03
643,50	3,1546E-02
643,84	2,8542E-02
644,19	9,1816E-03
644,53	2,5546E-02
644,87	-4,3013E-02
645,22	6,1779E-03
645,56	-1,9603E-02
645,90	-1,8483E-02
646,25	1,6639E-02
646,59	-2,6866E-02
646,93	3,7164E-02
647,28	2,3846E-02
647,62	-1,6608E-02
647,96	1,2555E-02
648,31	9,3681E-03
648,65	-1,1471E-02
648,99	2,3060E-02
649,34	-1,7911E-02
649,68	1,5714E-02
650,02	1,6878E-02
650,36	-3,4795E-02
650,71	-1,6797E-02
651,05	-4,0246E-02
651,39	7,2833E-02
651,74	1,7993E-02
652,08	-2,3301E-02
652,42	-2,7544E-02
652,76	-4,2950E-03
653,11	-2,9948E-02
653,45	-4,2927E-03
653,79	1,0746E-03
654,13	1,5040E-02
654,48	-2,9196E-02
654,82	7,6397E-03
655,16	2,1818E-02
655,50	4,3843E-02
655,85	1,2050E-02
656,19	2,3869E-02
656,53	1,4301E-02
656,87	2,5301E-02
657,21	2,1888E-03
657,56	9,8701E-03
657,90	1,9821E-02
658,24	-1,7699E-02
658,58	-2,8675E-02
658,92	-1,5386E-02
659,27	2,4419E-02
659,61	-1,1091E-03
659,95	2,5478E-02
660,29	3,5699E-02
660,63	8,9489E-03
660,97	5,2572E-02
661,32	-4,2979E-02
661,66	-2,2651E-03
662,00	-4,4946E-03
662,34	-1,1374E-02
662,68	1,1317E-02
663,02	3,6359E-02
663,37	5,5760E-02
663,71	3,0785E-02
664,05	3,4160E-03
664,39	3,8179E-02
664,73	4,7492E-02
665,07	4,6252E-03
665,41	-1,9673E-02
665,75	-1,3957E-02
666,09	-3,5039E-03
666,44	1,1757E-03
666,78	-8,2098E-03
667,12	-2,3655E-02
667,46	1,1808E-03
667,80	-1,9018E-02
668,14	1,5524E-02
668,48	2,0239E-02
668,82	-8,2585E-03
669,16	-2,2653E-02
669,50	3,8077E-02
669,84	9,6552E-02
670,18	2,2965E-02
670,52	-2,8995E-02
670,86	-4,1097E-02
671,20	-3,8726E-02
671,54	-1,3371E-02
671,88	-1,5876E-02
672,22	-1,6968E-02
672,57	9,8624E-03
672,91	-1,2246E-02
673,25	3,3265E-02
673,59	-1,2355E-03
673,93	8,7341E-03
674,27	-2,4938E-03
674,61	3,5379E-02
674,95	-2,8725E-02
675,28	-2,8925E-02
675,62	2,0146E-02
675,96	-1,7830E-02
676,30	1,5120E-02
676,64	-2,1504E-02
676,98	-2,3006E-02
677,32	-1,9261E-02
677,66	-4,6606E-02
678,00	-1,2877E-03
678,34	0,0000E00
678,68	-3,9018E-02
679,02	-1,9515E-02
679,36	-3,7738E-02
679,70	5,2439E-03
680,04	1,7050E-02
680,38	6,5889E-03
680,72	-3,1611E-02
681,06	2,6520E-02
681,39	-1,0514E-02
681,73	-1,4543E-02
682,07	3,9929E-03
682,41	0,0000E00
682,75	1,3385E-03
683,09	2,2658E-02
683,43	2,7229E-03
683,77	-1,8933E-02
684,11	2,7160E-02
684,44	-3,8071E-02
684,78	4,2430E-02
685,12	-2,0337E-02
685,46	1,5100E-02
685,80	-3,3041E-02
686,14	-2,6138E-02
686,48	-3,0172E-02
686,81	6,9022E-03
687,15	1,9292E-02
687,49	-2,7588E-03
687,83	-4,6004E-02
688,17	-4,1765E-03
688,51	2,3812E-02
688,84	-1,1270E-02
689,18	2,8243E-03
689,52	-1,1356E-02
689,86	0,0000E00
690,20	-4,2846E-03
690,53	-1,5709E-02
690,87	1,2708E-02
691,21	2,4225E-02
691,55	-2,8698E-02
691,88	4,8936E-02
692,22	-2,8795E-02
692,56	1,4355E-03
692,90	1,4328E-03
693,23	0,0000E00
693,57	-5,4736E-02
693,91	-4,2038E-02
694,25	-4,4190E-02
694,58	7,3005E-03
694,92	-2,3350E-02
695,26	7,3508E-03
695,60	-1,3236E-02
695,93	2,9526E-02
696,27	1,4671E-02
696,61	-8,8846E-03
696,94	-4,4363E-02
697,28	-2,9452E-03
697,62	1,1907E-02
697,96	5,3613E-02
698,29	8,8424E-03
698,63	-1,5024E-03
698,97	5,9774E-02
699,30	2,9866E-02
699,64	-8,1067E-02
699,98	2,3940E-02
700,31	-1,4977E-03
700,65	1,8139E-02
700,99	9,0285E-03
701,32	-4,0882E-02
701,66	-6,0351E-03
702,00	-1,5161E-02
702,33	-1,2165E-02
702,67	-2,2716E-02
703,00	3,2400E-02
703,34	-1,9736E-02
703,68	1,8368E-02
704,01	-1,6953E-02
704,35	-1,7278E-02
704,69	-1,9904E-02
705,02	-2,8011E-02
705,36	-1,8541E-02
705,69	1,5523E-02
706,03	-5,5746E-02
706,36	2,0365E-02
706,70	-1,2405E-02
707,04	6,1942E-03
707,37	4,3750E-02
707,71	-1,4045E-02
708,04	-6,5777E-02
708,38	-4,8873E-02
708,71	4,8340E-02
709,05	1,8771E-02
709,39	3,1402E-02
709,72	-1,1062E-02
710,06	9,4405E-03
710,39	1,7411E-02
710,73	-1,2603E-02
711,06	-8,2523E-02
711,40	2,2226E-02
711,73	-4,7584E-03
712,07	4,2656E-02
712,40	-1,1120E-02
712,74	6,3805E-03
713,07	-1,9089E-02
713,41	-2,8661E-02
713,74	-1,2705E-02
714,08	-4,3349E-02
714,41	-4,2050E-02
714,75	3,6809E-02
715,08	4,8159E-03
715,42	1,1271E-02
715,75	-4,8439E-03
716,08	-3,0643E-02
716,42	-1,1316E-02
716,75	6,7297E-02
717,09	5,2074E-02
717,42	-2,4397E-02
717,76	-4,8207E-03
718,09	-4,7024E-02
718,43	-1,4700E-02
718,76	8,0857E-03
719,09	-3,0969E-02
719,43	-3,2518E-02
719,76	-2,2966E-02
720,10	-5,7278E-02
720,43	-8,1963E-03
720,76	-4,0827E-02
721,10	-2,6180E-02
721,43	-1,8167E-02
721,76	-2,8015E-02
722,10	-3,3022E-02
722,43	-1,6534E-03
722,77	2,6346E-02
723,10	6,4508E-02
723,43	-3,3185E-03
723,77	8,3692E-03
724,10	-2,1545E-02
724,43	2,4861E-02
724,77	-1,0007E-02
725,10	-6,7145E-03
725,43	-4,0015E-02
725,77	2,5103E-02
726,10	-8,3438E-03
726,43	-2,0181E-02
726,77	-1,6720E-02
727,10	-2,6884E-02
727,43	8,4006E-03
727,77	1,6853E-03
728,10	-1,6896E-03
728,43	-4,0553E-02
728,76	-7,9804E-02
729,10	-1,7014E-02
729,43	-3,0845E-02
729,76	3,2714E-02
730,09	2,2272E-02
730,43	-3,2475E-02
730,76	0,0000E00
731,09	4,4688E-02
731,42	-3,0946E-02
731,76	-2,5879E-02
732,09	-2,0635E-02
732,42	1,3883E-02
732,75	1,9041E-02
733,09	-1,8994E-02
733,42	1,4069E-02
733,75	-1,4026E-02
734,08	5,0822E-02
734,41	3,3411E-02
734,75	-5,2482E-03
735,08	3,3781E-02
735,41	1,5988E-02
735,74	-8,2952E-02
736,07	-4,0936E-02
736,41	1,7622E-03
736,74	5,4097E-02
737,07	-4,9897E-02
737,40	0,0000E00
737,73	-3,5690E-03
738,06	-1,4385E-02
738,40	1,2444E-02
738,73	-6,8092E-02
739,06	-3,6257E-02
739,39	-2,7249E-02
739,72	5,2331E-02
740,05	5,4757E-02
740,38	-7,2935E-03
740,72	2,3829E-02
741,05	0,0000E00
741,38	-1,8287E-02
741,71	-4,6294E-02
742,04	-1,1031E-02
742,37	-1,8590E-03
742,70	-3,5338E-02
743,03	-2,0529E-02
743,36	7,4880E-03
743,69	7,0570E-02
744,02	-3,0179E-02
744,36	-5,4563E-02
744,69	-5,6220E-03
745,02	2,4529E-02
745,35	1,3316E-02
745,68	-1,5289E-02
746,01	-8,9810E-02
746,34	-5,3134E-02
746,67	-3,0655E-02
747,00	-7,6660E-02
747,33	-9,5781E-03
747,66	4,4543E-02
747,99	4,4510E-02
748,32	-2,5140E-02
748,65	-1,5541E-02
748,98	3,7145E-02
749,31	2,1524E-02
749,64	9,5890E-02
749,97	6,4894E-02
750,30	3,9486E-03
750,63	9,8990E-03
750,96	-2,1842E-02
751,29	7,9041E-03
751,62	-4,7670E-02
751,95	-4,8010E-02
752,28	0,0000E00
752,61	-1,6122E-02
752,94	-2,0205E-03
753,27	6,5025E-02
753,60	5,4805E-02
753,92	-1,8167E-02
754,25	-8,8078E-02
754,58	-2,6515E-02
754,91	1,2389E-02
755,24	-4,5275E-02
755,57	-5,3367E-02
755,90	-2,9008E-02
756,23	-6,2182E-02
756,56	1,2475E-02
756,89	-6,0287E-02
757,22	3,9802E-02
757,54	-1,8890E-02
757,87	-6,3300E-03
758,20	2,1070E-02
758,53	-1,0614E-02
758,86	4,0344E-02
759,19	6,8064E-02
759,52	1,0635E-02
759,84	6,1813E-02
760,17	2,1368E-02
760,50	-3,8788E-02
760,83	1,2922E-02
761,16	-4,8298E-02
761,49	-3,9241E-02
761,81	1,5171E-02
762,14	-2,1848E-03
762,47	-4,4627E-02
762,80	5,2540E-02
763,13	3,0901E-02
763,45	-4,2200E-02
763,78	-8,9191E-03
764,11	6,4185E-02
764,44	-6,7400E-02
764,77	-2,8929E-02
765,09	-2,2417E-03
765,42	-2,2426E-03
765,75	-4,0490E-02
766,08	-4,4871E-03
766,40	6,7672E-03
766,73	3,8574E-02
767,06	3,6413E-02
767,39	4,5830E-02
767,71	-4,5364E-03
768,04	3,0093E-02
768,37	-4,8599E-02
768,70	0,0000E00
769,02	1,1524E-02
769,35	-5,3496E-02
769,68	9,2086E-03
770,00	-4,8725E-02
770,33	-2,0914E-02
770,66	1,1516E-01
770,99	-4,7527E-03
771,31	-7,7597E-02
771,64	4,7568E-03
771,97	-5,9685E-02
772,29	-9,0808E-02
772,62	-3,5909E-02
772,95	-6,0818E-02
773,27	4,8436E-03
773,60	-5,5775E-02
773,93	5,7816E-02
774,25	8,2337E-02
774,58	3,6234E-02
774,90	4,8660E-03
775,23	2,2048E-02
775,56	2,7015E-02
775,88	2,4530E-02
776,21	7,3989E-03
776,54	3,6868E-02
776,86	-2,7299E-02
777,19	-3,7142E-02
777,51	-8,2745E-02
777,84	-5,5207E-02
778,16	2,7601E-02
778,49	-6,3215E-02
778,82	-5,0272E-02
779,14	-9,1190E-02
779,47	4,5541E-02
779,79	5,1305E-02
780,12	-4,1101E-02
780,44	-3,8450E-02
780,77	-4,6269E-02
781,10	3,0740E-02
781,42	4,3597E-02
781,75	1,5740E-02
782,07	1,8394E-02
782,40	8,8798E-02
782,72	-1,3059E-02
783,05	-1,8371E-02
783,37	2,6604E-03
783,70	3,1988E-02
784,02	-8,9617E-02
784,35	-1,1226E-01
784,67	-1,3361E-02
785,00	3,2204E-02
785,32	4,0607E-02
785,65	4,3516E-02
785,97	5,4114E-02
786,30	1,3665E-02
786,62	1,6086E-02
786,94	2,4768E-02
787,27	-1,3621E-02
787,59	-2,7762E-02
787,92	1,3583E-02
788,24	9,3277E-02
788,57	2,1823E-02
788,89	7,7043E-02
789,22	4,1182E-02
789,54	-2,7325E-03
789,86	-3,2944E-02
790,19	-4,9631E-02
790,51	-6,0656E-02
790,84	-4,1471E-02
791,16	-8,3080E-03
791,48	-8,2958E-02
791,81	3,3138E-02
792,13	1,6701E-01
792,45	5,8016E-02
792,78	-6,0934E-02
793,10	3,5741E-02
793,43	-5,5051E-02
793,75	6,0509E-02
794,07	1,6617E-02
794,40	1,0973E-02
794,72	5,4577E-03
795,04	-2,1837E-02
795,37	-4,9209E-02
795,69	-6,6348E-02
796,01	-1,6402E-02
796,34	5,9688E-02
796,66	-2,4540E-02
796,98	0,0000E00
797,30	-2,7264E-03
797,63	-9,9338E-02
797,95	-4,5496E-02
798,27	-2,6897E-03
798,60	-7,2488E-02
798,92	-8,0847E-02
799,24	8,0488E-03
799,56	2,6933E-02
799,89	6,2198E-02
800,21	3,5063E-02
800,53	1,6124E-02
800,85	1,1057E-01
801,18	1,6685E-01
801,50	-1,3451E-02
801,82	1,3359E-02
802,14	2,9755E-02
802,47	7,0170E-02
802,79	-2,4269E-02
803,11	6,9781E-02
803,43	-3,4498E-02
803,75	-4,5624E-02
804,08	-7,7742E-02
804,40	2,4203E-02
804,72	3,4656E-02
805,04	-4,2985E-02
805,36	-8,1642E-03
805,69	0,0000E00
806,01	2,9867E-02
806,33	2,7007E-02
806,65	-6,8248E-02
806,97	8,0988E-03
807,29	2,1853E-02
807,62	-1,0810E-02
807,94	-1,6384E-02
808,26	-4,9310E-02
808,58	-1,6495E-02
808,90	2,4734E-02
809,22	-9,0204E-02
809,54	3,8557E-02
809,86	1,3630E-02
810,18	-1,6516E-02
810,51	7,1659E-02
810,83	9,1254E-02
811,15	1,0483E-01
811,47	2,7585E-03
811,79	-3,5888E-02
812,11	-7,2563E-02
812,43	-5,5812E-03
812,75	2,5271E-02
813,07	7,3342E-02
813,39	8,4424E-03
813,71	-1,9826E-02
814,03	7,9184E-02
814,35	5,3925E-02
814,67	-3,1319E-02
814,99	-2,8309E-03
815,31	7,9002E-02
815,64	-4,5602E-02
815,96	2,8283E-03
816,28	-8,4912E-03
816,60	-4,5875E-02
816,92	-4,3010E-02
817,24	5,7784E-02
817,56	-5,1794E-02
817,88	-4,9366E-02
818,19	-2,0177E-02
818,51	0,0000E00
818,83	2,3144E-02
819,15	-7,0246E-02
819,47	1,1410E-01
819,79	3,1950E-02
820,11	1,0865E-01
820,43	2,0773E-02
820,75	-1,4627E-02
821,07	-1,0962E-01
821,39	-5,3755E-02
821,71	-3,5392E-02
822,03	-4,8060E-02
822,35	-6,3006E-02
822,67	-8,0983E-02
822,99	-1,9798E-01
823,31	-7,1633E-02
823,62	3,6301E-02
823,94	3,0263E-03
824,26	3,0566E-03
824,58	-8,4990E-02
824,90	6,1174E-02
825,22	8,0362E-02
825,54	8,0410E-02
825,86	2,1624E-02
826,17	6,2447E-03
826,49	4,6508E-02
826,81	-2,8021E-02
827,13	4,4146E-02
827,45	2,1888E-02
827,77	7,4815E-02
828,08	-6,6104E-02
828,40	-9,5437E-03
828,72	-3,4934E-02
829,04	1,6737E-01
829,36	-5,4786E-02
829,67	1,2794E-02
829,99	-7,3706E-02
830,31	4,1963E-02
830,63	1,6226E-01
830,95	-1,6169E-02
831,26	-3,2426E-03
831,58	5,8518E-02
831,90	5,8429E-02
832,22	3,9290E-02
832,53	9,7963E-03
832,85	-1,1540E-01
833,17	2,3293E-02
833,49	-2,0120E-02
833,80	5,3562E-02
834,12	-3,3414E-03
834,44	-3,6974E-02
834,76	-2,3837E-02
835,07	-6,7827E-03
835,39	1,6839E-02
835,71	2,0124E-02
836,02	-7,4322E-02
836,34	2,0395E-02
836,66	5,0785E-02
836,97	-6,1239E-02
837,29	-1,2008E-01
837,61	-1,3028E-01
837,93	3,0918E-02
838,24	-1,1423E-01
838,56	-4,8804E-02
838,88	-3,1460E-02
839,19	-2,4222E-02
839,51	9,8333E-02
839,82	-4,2223E-02
840,14	2,1165E-02
840,46	1,7745E-02
840,77	-8,1599E-02
841,09	-2,1452E-02
841,41	-5,6894E-02
841,72	1,4726E-01
842,04	6,1788E-02
842,35	-2,8731E-02
842,67	7,2116E-02
842,99	1,4483E-02
843,30	-2,1997E-01
843,62	-9,5091E-02
843,93	-6,2323E-02
844,25	6,9506E-02
844,56	-7,4093E-03
844,88	1,2621E-01
845,20	-4,4380E-02
845,51	-5,1982E-02
845,83	-1,1693E-01
846,14	-1,1210E-01
846,46	-6,0220E-02
846,77	-1,7093E-01
847,09	-3,4011E-02
847,40	-1,8935E-01
847,72	-7,6259E-02
848,03	-8,4002E-02
848,35	-6,1604E-02
848,66	-1,9210E-01
848,98	-7,7415E-03
849,29	-1,9370E-02
849,61	1,3577E-01
849,92	1,4053E-01
850,24	-1,9516E-02
850,55	2,3756E-02
850,87	-8,2779E-02
851,18	-7,9700E-02
851,50	1,1912E-01
851,81	3,2210E-02
852,12	1,1972E-02
852,44	1,2915E-01
852,75	6,4892E-02
853,07	-1,2449E-01
853,38	-4,0527E-02
853,70	-2,8428E-02
854,01	-1,1025E-01
854,32	3,2882E-02
854,64	-8,3421E-03
854,95	2,0548E-02
855,27	-1,1553E-01
855,58	-1,2492E-01
855,89	-1,5194E-01
856,21	-5,8660E-02
856,52	8,0085E-02
856,83	1,0052E-01
857,15	-4,6555E-02
857,46	2,9871E-02
857,77	-4,2921E-03
858,09	-8,4486E-03
858,40	9,4117E-02
858,71	-4,3207E-02
859,03	1,4328E-01
859,34	1,3466E-01
859,65	1,0428E-01
859,97	8,7992E-03
860,28	-1,4881E-01
860,59	9,7090E-02
860,91	-2,6731E-02
861,22	-2,6717E-02
861,53	-5,2947E-02
861,84	0,0000E00
862,16	-1,0764E-01
862,47	-7,2628E-02
862,78	-4,5084E-02
863,10	9,0313E-03
863,41	1,3139E-01
863,72	3,6845E-02
864,03	-6,9172E-02
864,35	3,2411E-02
864,66	1,3621E-02
864,97	-8,3994E-02
865,28	-1,1646E-01
865,59	-3,7668E-02
865,91	9,3814E-03
866,22	3,7749E-02
866,53	1,1479E-01
866,84	1,0917E-01
867,15	7,1170E-02
867,47	1,9368E-02
867,78	1,9397E-02
868,09	-6,7760E-02
868,40	1,3187E-01
868,71	4,4263E-02
869,02	1,8658E-01
869,34	-6,3833E-02
869,65	-7,5129E-02
869,96	-1,1048E-01
870,27	-4,4921E-02
870,58	-6,4959E-02
870,89	-1,5197E-01
871,20	-1,6132E-01
871,52	-1,0202E-02
871,83	-5,5883E-02
872,14	-1,9443E-01
872,45	-1,2733E-01
872,76	-1,7615E-01
873,07	-1,8979E-01
873,38	-1,0521E-02
873,69	-5,2301E-03
874,00	1,5699E-02
874,31	1,1588E-01
874,62	-8,4613E-02
874,94	1,6987E-01
875,25	6,3764E-02
875,56	5,3193E-03
875,87	3,7654E-02
876,18	-1,6278E-02
876,49	-9,6257E-02
876,80	-2,7208E-02
877,11	-1,1385E-01
877,42	-1,6484E-02
877,73	6,6073E-02
878,04	-1,4355E-01
878,35	1,4862E-01
878,66	8,2393E-02
878,97	-1,2977E-01
879,28	-1,0981E-01
879,59	-2,1362E-01
879,90	2,8263E-02
880,21	-1,7340E-01
880,52	-5,6008E-03
880,83	7,2195E-02
881,14	2,3836E-01
881,45	-1,1186E-02
881,76	7,7718E-02
882,07	-1,6949E-02
882,37	-3,4085E-02
882,68	-5,0173E-02
882,99	6,7497E-02
883,30	-3,9365E-02
883,61	-1,3949E-01
883,92	-3,9936E-02
884,23	7,2754E-02
884,54	1,9191E-01
884,85	-1,3453E-01
885,16	1,1929E-01
885,47	6,7911E-02
885,77	1,3040E-01
886,08	-2,8290E-02
886,39	7,8792E-02
886,70	-8,0250E-02
887,01	-3,3957E-02
887,32	1,1192E-02
887,63	-2,2235E-01
887,93	3,8961E-02
888,24	-1,4519E-01
888,55	1,0639E-01
888,86	-1,6270E-01
889,17	-8,9297E-02
889,47	-2,2335E-01
889,78	-2,7467E-01
890,09	-2,2669E-02
890,40	-1,1344E-01
890,71	-4,4867E-02
891,01	9,0566E-02
891,32	5,5327E-03
891,63	-6,1824E-02
891,94	-3,4245E-02
892,25	-2,8285E-02
892,55	1,5138E-01
892,86	-1,6839E-02
893,17	7,2947E-02
893,48	2,2413E-02
893,78	-1,1181E-01
894,09	-2,2271E-02
894,40	-3,3836E-02
894,70	-5,0727E-02
895,01	-1,7351E-01
895,32	-1,9572E-01
895,63	-1,6163E-01
895,93	-1,7436E-01
896,24	-2,5227E-01
896,55	-9,4992E-02
896,85	-1,2267E-01
897,16	-1,2750E-01
897,47	8,9430E-02
897,77	9,5144E-02
898,08	9,5160E-02
898,39	2,2856E-02
898,69	1,6336E-01
899,00	5,6502E-02
899,31	1,1324E-01
899,61	-5,1541E-02
899,92	1,7999E-01
900,23	1,0779E-01
900,53	-2,8488E-02
900,84	1,1373E-02
901,14	-7,4734E-02
901,45	-1,6497E-01
901,76	0,0000E00
902,06	1,3276E-01
902,37	-1,3252E-01
902,67	6,4038E-02
902,98	-1,0446E-01
903,29	8,2321E-02
903,59	1,6772E-01
903,90	2,3468E-02
904,20	2,9410E-02
904,51	-8,2752E-02
904,81	-1,1867E-02
905,12	1,4750E-01
905,42	1,6536E-01
905,73	-6,4624E-02
906,03	-5,9271E-03
906,34	-1,9428E-01
906,64	1,8510E-01
906,95	6,5263E-02
907,25	2,4193E-02
907,56	-1,8179E-02
907,86	8,5736E-02
908,17	-2,4485E-02
908,47	2,4657E-02
908,78	2,4638E-02
909,08	8,0672E-02
909,39	-2,0025E-01
909,69	-4,9851E-02
910,00	1,6770E-01
910,30	-6,3522E-02
910,61	-8,8149E-02
910,91	-1,3835E-01
911,21	6,4091E-03
911,52	-2,0390E-01
911,82	8,2943E-02
912,13	0,0000E00
912,43	1,3882E-01
912,74	-7,8558E-02
913,04	5,7854E-02
913,34	-3,2936E-02
913,65	3,9633E-02
913,95	-2,0461E-01
914,25	2,9084E-01
914,56	2,1251E-01
914,86	-5,3601E-02
915,17	-2,8132E-01
915,47	-1,8371E-01
915,77	-1,3058E-01
916,08	3,4271E-02
916,38	-9,6119E-02
916,68	-6,1689E-02
916,99	6,2164E-02
917,29	2,4084E-01
917,59	6,2401E-02
917,90	2,4530E-01
918,20	1,1815E-01
918,50	1,6677E-01
918,80	-2,3550E-01
919,11	8,5839E-02
919,41	-2,0927E-01
919,71	0,0000E00
920,02	-9,3555E-02
920,32	-2,3049E-01
920,62	-1,8242E-01
920,92	-3,2142E-01
921,23	-1,5300E-01
921,53	5,9097E-02
921,83	1,6159E-01
922,13	-5,1579E-02
922,44	-5,2539E-02
922,74	1,2154E-01
923,04	1,5788E-01
923,34	1,5987E-01
923,64	-1,5400E-02
923,95	-2,3026E-01
924,25	3,8496E-02
924,55	-9,2975E-02
924,85	-6,3174E-02
925,15	7,0790E-02
925,46	-1,4155E-01
925,76	-4,7733E-02
926,06	-1,8501E-01
926,36	2,4105E-02
926,66	-6,4674E-02
926,96	-2,4432E-02
927,26	1,6327E-02
927,57	-1,3750E-01
927,87	0,0000E00
928,17	-2,4797E-02
928,47	-3,3314E-02
928,77	-9,2114E-02
929,07	-1,2582E-01
929,37	-1,9419E-01
929,67	8,3968E-02
929,98	-3,9185E-01
930,28	3,4057E-02
930,58	5,9809E-02
930,88	1,7242E-02
931,18	2,1663E-01
931,48	-8,7343E-03
931,78	2,2385E-01
932,08	-1,7932E-02
932,38	1,8834E-01
932,68	1,6106E-01
932,98	-1,2800E-01
933,28	-1,5549E-01
933,58	1,1655E-01
933,88	1,9350E-01
934,18	8,1221E-02
934,48	1,6620E-01
934,78	-2,4375E-01
935,08	-1,5946E-01
935,38	1,8950E-02
935,68	-6,6351E-02
935,98	-9,5210E-03
936,28	-1,0538E-01
936,58	1,0676E-01
936,88	3,1247E-01
937,18	-1,9850E-01
937,48	9,8071E-02
937,78	-9,7645E-03
938,08	3,9471E-02
938,38	-2,1519E-01
938,68	-3,0739E-02
938,98	1,1922E-01
939,28	-3,0164E-02
939,57	1,3190E-01
939,87	-2,2514E-01
940,17	1,0308E-01
940,47	5,1808E-02
940,77	4,1235E-02
941,07	4,1206E-01
941,37	-4,2396E-02
941,67	3,1651E-01
941,97	-1,2752E-01
942,26	-5,4189E-02
942,56	3,2286E-02
942,86	-1,8442E-01
943,16	-1,3995E-01
943,46	1,0798E-02
943,76	-2,9535E-01
944,06	-1,0004E-01
944,35	-4,7933E-01
944,65	-1,5779E-01
944,95	-1,1246E-01
945,25	0,0000E00
945,55	-2,5285E-01
945,84	2,2730E-02
946,14	8,0902E-02
946,44	-8,2699E-02
946,74	1,2723E-01
947,03	2,0102E-01
947,33	-2,2448E-01
947,63	-1,4408E-01
947,93	3,6137E-01
948,23	-1,9065E-01
948,52	7,3640E-02
948,82	1,4673E-01
949,12	-3,5883E-01
949,41	-1,3565E-01
949,71	-7,5662E-02
950,01	3,5429E-01
950,31	2,5469E-01
950,60	-2,1532E-01
950,90	-2,3635E-01
951,20	3,1564E-01
951,49	-6,4658E-02
951,79	2,0825E-01
952,09	2,2447E-01
952,38	-3,2015E-01
952,68	-1,7532E-01
952,98	-2,3092E-01
953,27	-3,2083E-01
953,57	4,0924E-01
953,87	-1,8025E-01
954,16	9,6238E-02
954,46	0,0000E00
954,76	-4,2579E-01
955,05	-1,4345E-02
955,35	-8,5207E-02
955,64	4,3716E-02
955,94	-2,9894E-01
956,24	-2,8775E-01
956,53	6,1518E-01
956,83	-1,4730E-02
957,12	1,6007E-01
957,42	2,7087E-01
957,72	-2,0875E-01
958,01	-2,2639E-01
958,31	3,6528E-01
958,60	-5,3120E-01
958,90	4,0206E-01
959,19	-3,0828E-02
959,49	-1,5709E-01
959,78	-4,6889E-02
960,08	-1,1040E-01
960,37	6,3437E-02
960,67	-8,0868E-02
960,96	3,5292E-01
961,26	-4,3656E-01
961,55	6,0335E-01
961,85	3,1132E-01
962,14	-3,4984E-01
962,44	-6,7297E-02
962,73	-5,0683E-02
963,03	-2,0093E-01
963,32	4,1343E-01
963,62	-3,4422E-01
963,91	3,7927E-01
964,21	4,3983E-01
964,50	7,7152E-01
964,80	4,3667E-01
965,09	-1,5463E-01
965,38	-2,8540E-01
965,68	-1,1048E-01
965,97	-5,4885E-01
966,27	-7,8437E-01
966,56	-5,4959E-01
966,85	1,4702E-01
967,15	-7,3400E-01
967,44	-7,6241E-02
967,74	-1,8600E-01
968,03	1,1260E-01
968,32	8,5427E-01
968,62	2,5219E-01
968,91	5,3918E-01
969,20	5,9129E-02
969,50	7,9591E-01
969,79	1,0128E00
970,08	1,9771E-01
970,38	1,2123E-01
970,67	-2,5678E-01
970,96	-2,0306E-01
971,26	-2,0653E-02
971,55	4,4439E-01
971,84	-1,0350E-01
972,13	8,1842E-01
972,43	-2,1360E-01
972,72	-4,3761E-02
973,01	5,0692E-01
973,31	5,0158E-01
973,60	-3,6537E-01
973,89	-1,5424E-01
974,18	-4,9343E-01
974,48	7,4753E-01
974,77	-9,5563E-01
975,06	-1,5825E-01
975,35	3,9735E-01
975,64	0,0000E00
975,94	3,4997E-01
976,23	-1,1764E-01
976,52	4,5638E-01
976,81	-7,5759E-01
977,10	2,4708E-02
977,40	-2,2167E-01
977,69	2,8998E-01
977,98	5,0604E-02
978,27	4,9624E-02
978,56	4,9642E-01
978,86	-1,5121E-01
979,15	-5,1744E-01
979,44	4,1410E-01
979,73	-8,0657E-02
980,02	-3,9824E-01
980,31	6,2428E-01
980,60	1,6015E-01
980,89	2,2213E-01
981,19	-3,7371E-01
981,48	-1,6183E-01
981,77	4,9101E-01
982,06	-5,9067E-01
982,35	-3,0912E-01
982,64	6,8411E-01
982,93	2,3208E-01
983,22	-4,0169E-01
983,51	3,8406E-01
983,80	-4,9677E-01
984,09	-3,8194E-01
984,38	-4,4684E-01
984,67	-7,7753E-01
984,96	-6,0062E-01
985,25	-7,9267E-01
985,55	-5,8919E-01
985,84	6,8867E-01
986,13	4,5695E-01
986,42	-6,4077E-01
986,71	-9,9553E-01
987,00	-6,7622E-01
987,29	2,5740E-01
987,58	6,5764E-01
987,86	5,9691E-01
988,15	-4,7703E-01
988,44	-9,8619E-01
988,73	-3,7861E-01
989,02	-2,4546E-01
989,31	7,1857E-02
989,60	-2,1290E00
989,89	-8,2385E-01
990,18	1,0756E-01
990,47	-5,0676E-01
990,76	4,8077E-01
991,05	1,4474E-01
991,34	-3,2222E-01
991,63	7,2315E-01
991,92	1,8831E00
992,20	6,3869E-01
992,49	6,0735E-01
992,78	-7,5964E-02
993,07	5,7997E-01
993,36	2,2483E00
993,65	4,0241E-02
993,94	-1,6034E00
994,22	-4,0013E-02
994,51	2,8377E-01
994,80	2,9934E-01
995,09	3,4029E-01
995,38	-4,5618E-01
995,67	-9,8347E-01
995,95	1,0231E00
996,24	4,2946E-01
996,53	-4,2893E-02
996,82	8,6985E-02
997,11	-1,3687E00
997,39	0,0000E00
997,68	-5,7950E-01
997,97	8,2908E-01
998,26	-7,2327E-01
998,54	8,9895E-01
998,83	-1,3722E00
999,12	7,2318E-01
999,41	-2,1363E00
999,69	-1,0908E00
999,98	4,3599E-01
1000,27	-1,8116E00
1000,56	4,4863E-01
1000,84	-7,6216E-01
1001,13	3,6546E-01
1001,42	-2,1151E-01
1001,70	-7,5626E-01
1001,99	4,1930E-01
1002,28	1,6006E-01
1002,56	-3,7326E-01
1002,85	-7,7513E-01
1003,14	-5,0473E-01
1003,42	-3,2951E-01
1003,71	1,0178E00
1004,00	-5,2089E-01
1004,28	9,2263E-01
1004,57	-2,0667E00
1004,86	-1,7584E-01
1005,14	1,1860E00
1005,43	7,1597E-01
1005,72	1,8169E-01
1006,00	1,8784E00
1006,29	-1,2085E00
1006,57	-5,1183E-01
1006,86	3,9085E-01
1007,15	6,5443E-01
1007,43	-1,1101E00
1007,72	-4,7376E-01
1008,00	-6,6090E-02
1008,29	-1,3647E00
1008,57	1,9876E00
1008,86	-1,7524E00
1009,14	-1,5474E00
1009,43	-1,3029E00
1009,71	3,5379E00
1010,00	-9,0856E-01
1010,29	-8,3895E-01
1010,57	5,2102E-01
1010,86	1,1998E00
1011,14	-1,1489E00
1011,43	-9,7288E-01
1011,71	3,9545E-01
1011,99	-5,3097E-01
1012,28	-5,3970E00
1012,56	-2,2742E00
1012,85	8,2767E-02
1013,13	-3,0042E00
1013,42	-1,7934E00
1013,70	-1,9914E00
1013,99	1,3489E00
1014,27	-5,8637E-01
1014,56	4,9394E-01
1014,84	1,3833E00
1015,12	1,6420E00
1015,41	4,3934E00
1015,69	-1,7519E-01
1015,98	-4,6801E-01
1016,26	-6,5680E-01
1016,54	1,4863E00
1016,83	-5,7740E-01
1017,11	2,1329E00
1017,39	-1,5995E00
1017,68	3,9642E-01
1017,96	2,2992E00
1018,25	-1,1738E00
1018,53	1,3896E00
1018,81	-1,4911E00
1019,10	7,0329E-01
1019,38	-1,9620E00
1019,66	-6,0526E-01
1019,94	-1,5344E00
1020,23	-4,1112E00
1020,51	-1,6564E00
1020,79	5,3384E-01
1021,08	-5,7456E00
1021,36	-6,7563E-01
1021,64	1,9937E00
1021,93	-8,4390E-01
1022,21	4,7425E00
1022,49	4,7425E00
>>>>>End Processed Spectral Data<<<<<
