SpectraSuite Data File
++++++++++++++++++++++++++++++++++++
Date: Tue Jan 01 00:58:42 EET 1980
User: mkilpela
Dark Spectrum Present: Yes
Reference Spectrum Present: No
Number of Sampled Component Spectra: 1
Spectrometers: JAZA2845
Integration Time (usec): 7000 (JAZA2845)
Spectra Averaged: 1 (JAZA2845)
Boxcar Smoothing: 0 (JAZA2845)
Correct for Electrical Dark: No (JAZA2845)
Strobe/Lamp Enabled: No (JAZA2845)
Correct for Detector Non-linearity: No (JAZA2845)
Correct for Stray Light: No (JAZA2845)
Number of Pixels in Processed Spectrum: 2048
>>>>>Begin Processed Spectral Data<<<<<
340,21	-0,0000E00
340,58	-0,0000E00
340,96	-0,0000E00
341,33	0,0000E00
341,70	-0,0000E00
342,07	0,0000E00
342,45	-0,0000E00
342,82	-0,0000E00
343,19	-0,0000E00
343,57	-0,0000E00
343,94	-0,0000E00
344,31	-0,0000E00
344,68	0,0000E00
345,06	-0,0000E00
345,43	-0,0000E00
345,80	-0,0000E00
346,18	0,0000E00
346,55	-0,0000E00
346,92	-0,0000E00
347,29	0,0000E00
347,67	-0,0000E00
348,04	0,0000E00
348,41	-0,0000E00
348,78	-0,0000E00
349,16	0,0000E00
349,53	-0,0000E00
349,90	0,0000E00
350,27	-6,8097E-01
350,64	-5,2835E-01
351,02	-1,0406E00
351,39	3,3062E-01
351,76	-1,3339E00
352,13	-3,4096E00
352,51	-1,6657E00
352,88	-1,8276E00
353,25	-8,9337E-01
353,62	-2,9744E-01
353,99	-6,1627E-01
354,37	-5,5390E00
354,74	-8,6395E-01
355,11	-9,5192E-01
355,48	-7,3323E-01
355,85	2,3985E-01
356,23	-2,7634E00
356,60	-9,9426E-01
356,97	2,7948E-01
357,34	-1,2800E00
357,71	-1,4534E00
358,08	3,5976E-02
358,46	-2,8223E00
358,83	-1,1064E00
359,20	-5,6332E-01
359,57	-1,7076E00
359,94	2,7181E-01
360,31	-4,8877E-01
360,69	9,7340E-01
361,06	1,0078E00
361,43	4,2285E-01
361,80	2,3182E00
362,17	9,6468E-02
362,54	3,4013E-02
362,91	4,4531E-02
363,29	-3,6103E00
363,66	1,3557E00
364,03	-3,3582E-01
364,40	-1,5657E00
364,77	-2,9817E00
365,14	-1,9060E00
365,51	2,2355E-01
365,88	-9,3934E-01
366,26	3,1925E-01
366,63	8,1854E-01
367,00	-1,1860E00
367,37	-6,1694E00
367,74	-1,8755E00
368,11	-1,0914E00
368,48	-5,2986E-01
368,85	-3,3887E-01
369,22	-4,9810E-01
369,59	6,7338E-01
369,97	-1,2645E00
370,34	-1,0468E-01
370,71	-3,5143E-01
371,08	-9,0662E-01
371,45	-4,9393E-01
371,82	-3,5585E-01
372,19	-2,0816E00
372,56	-1,4756E00
372,93	1,3637E-01
373,30	-8,8841E-01
373,67	-1,4512E00
374,04	-3,0510E-01
374,41	1,9262E-01
374,78	0,0000E00
375,15	-1,1938E00
375,52	2,5002E00
375,89	-1,2732E00
376,26	4,3154E-01
376,63	-2,8686E00
377,00	-1,7226E00
377,38	-9,7900E-01
377,75	5,4664E-01
378,12	0,0000E00
378,49	-3,1845E-02
378,86	-5,8241E-01
379,23	-6,3973E-01
379,60	-8,2696E-01
379,97	1,7988E-01
380,34	5,2101E-01
380,71	-6,9257E-01
381,08	-7,3378E-01
381,45	-1,4162E00
381,82	6,4878E-01
382,19	-1,4537E00
382,55	-3,9400E-01
382,92	-1,0478E00
383,29	5,0286E-01
383,66	1,9795E00
384,03	9,9980E-01
384,40	6,6183E-01
384,77	-1,4066E-01
385,14	4,3972E-01
385,51	2,4370E-01
385,88	-5,7053E-01
386,25	-6,2256E-02
386,62	-4,7972E-01
386,99	-1,7286E00
387,36	-1,2927E00
387,73	-8,9004E-02
388,10	7,5377E-01
388,47	5,2332E-01
388,84	1,2767E-01
389,21	3,6979E-01
389,58	2,9173E-01
389,94	-6,9933E-01
390,31	-3,0110E-01
390,68	3,1881E-01
391,05	8,3752E-01
391,42	3,1464E-01
391,79	5,5742E-01
392,16	-6,1971E-01
392,53	5,2906E-02
392,90	-1,8311E-01
393,27	5,0446E-01
393,63	-2,0661E-01
394,00	-1,3827E00
394,37	6,0333E-01
394,74	-4,9988E-01
395,11	5,3199E-02
395,48	-1,9409E-01
395,85	-2,7168E-01
396,22	-4,2726E-01
396,58	1,4756E-01
396,95	-3,7849E-01
397,32	-2,9638E-01
397,69	-4,3750E-01
398,06	-7,1801E-01
398,43	3,8704E-01
398,80	-8,4846E-02
399,16	-6,8528E-01
399,53	-9,5316E-01
399,90	-4,8660E-01
400,27	-2,5928E-01
400,64	-1,6888E-01
401,01	-4,3235E-01
401,37	-5,5905E-01
401,74	1,2241E00
402,11	-7,8444E-01
402,48	7,5618E-01
402,85	-1,8732E-01
403,22	-1,0342E00
403,58	-2,5856E-01
403,95	-9,9671E-01
404,32	-1,1102E00
404,69	-2,6141E-01
405,06	-5,5660E-02
405,42	-9,4043E-01
405,79	-6,9200E-02
406,16	1,8986E-01
406,53	-2,9359E-01
406,89	8,8459E-01
407,26	-2,2206E-01
407,63	-3,2146E-01
408,00	-7,0466E-01
408,37	3,3739E-01
408,73	2,4162E-01
409,10	1,0119E00
409,47	3,3585E-01
409,84	-4,9319E-01
410,20	1,0671E00
410,57	-5,0572E-01
410,94	4,1759E-02
411,31	1,5003E-01
411,67	2,8187E-01
412,04	5,7667E-01
412,41	1,5307E-01
412,77	3,7345E-01
413,14	-6,6355E-02
413,51	-1,5593E-01
413,88	4,5988E-02
414,24	-6,3453E-01
414,61	1,6322E-01
414,98	-4,2558E-01
415,34	0,0000E00
415,71	2,0914E-01
416,08	3,6429E-01
416,45	1,5088E-01
416,81	2,3085E-02
417,18	-5,5512E-01
417,55	-1,0133E-01
417,91	3,3806E-01
418,28	4,4547E-01
418,65	5,8165E-01
419,01	6,4676E-01
419,38	4,9147E-01
419,75	7,2056E-01
420,11	1,1837E00
420,48	1,3959E00
420,85	1,5276E00
421,21	1,5022E00
421,58	2,2375E00
421,95	2,6507E00
422,31	2,8405E00
422,68	3,8754E00
423,05	3,7144E00
423,41	4,8267E00
423,78	4,9592E00
424,15	5,7722E00
424,51	5,4689E00
424,88	7,3452E00
425,24	8,5919E00
425,61	9,0952E00
425,98	9,1799E00
426,34	1,1078E01
426,71	1,0580E01
427,07	1,2343E01
427,44	1,4604E01
427,81	1,3972E01
428,17	1,7087E01
428,54	1,6437E01
428,90	1,8546E01
429,27	1,7884E01
429,64	2,0480E01
430,00	2,1743E01
430,37	2,5798E01
430,73	2,4392E01
431,10	2,7006E01
431,46	2,7613E01
431,83	3,0130E01
432,20	3,0843E01
432,56	3,7687E01
432,93	3,8600E01
433,29	4,0125E01
433,66	4,4270E01
434,02	4,3597E01
434,39	4,4573E01
434,75	5,1973E01
435,12	5,4640E01
435,49	5,8404E01
435,85	5,9131E01
436,22	6,5962E01
436,58	7,0408E01
436,95	7,1713E01
437,31	7,8657E01
437,68	8,1190E01
438,04	9,1074E01
438,41	9,0212E01
438,77	9,3841E01
439,14	9,7048E01
439,50	1,0039E02
439,87	1,0745E02
440,23	1,1527E02
440,60	1,1767E02
440,96	1,1534E02
441,33	1,1753E02
441,69	1,2527E02
442,06	1,3046E02
442,42	1,3402E02
442,78	1,3961E02
443,15	1,3968E02
443,51	1,4489E02
443,88	1,4748E02
444,24	1,4121E02
444,61	1,4899E02
444,97	1,5046E02
445,34	1,5310E02
445,70	1,4772E02
446,07	1,4819E02
446,43	1,5718E02
446,79	1,6128E02
447,16	1,5920E02
447,52	1,6654E02
447,89	1,6737E02
448,25	1,6271E02
448,62	1,6791E02
448,98	1,6514E02
449,34	1,6199E02
449,71	1,6675E02
450,07	1,6078E02
450,44	1,6199E02
450,80	1,6308E02
451,16	1,6345E02
451,53	1,6545E02
451,89	1,6089E02
452,25	1,5813E02
452,62	1,5959E02
452,98	1,5752E02
453,35	1,5011E02
453,71	1,4997E02
454,07	1,4443E02
454,44	1,4967E02
454,80	1,4000E02
455,16	1,3718E02
455,53	1,3308E02
455,89	1,3079E02
456,25	1,2928E02
456,62	1,2395E02
456,98	1,1765E02
457,34	1,1594E02
457,71	1,0760E02
458,07	1,0428E02
458,43	1,0358E02
458,80	9,8681E01
459,16	9,2433E01
459,52	9,2425E01
459,89	8,8845E01
460,25	8,5553E01
460,61	7,6736E01
460,98	7,6284E01
461,34	7,1974E01
461,70	6,9630E01
462,07	6,5124E01
462,43	6,5039E01
462,79	5,9340E01
463,15	5,7264E01
463,52	5,4509E01
463,88	5,2575E01
464,24	5,0562E01
464,61	4,6605E01
464,97	4,6252E01
465,33	4,4260E01
465,69	4,1941E01
466,06	3,9432E01
466,42	3,7132E01
466,78	3,5849E01
467,14	3,3936E01
467,51	3,0903E01
467,87	3,0236E01
468,23	2,8524E01
468,59	2,5784E01
468,95	2,4639E01
469,32	2,2791E01
469,68	2,1040E01
470,04	1,9020E01
470,40	1,7753E01
470,77	1,6434E01
471,13	1,4642E01
471,49	1,3404E01
471,85	1,1649E01
472,21	1,0512E01
472,58	9,3979E00
472,94	7,7171E00
473,30	6,7276E00
473,66	5,6459E00
474,02	4,0289E00
474,39	3,4266E00
474,75	2,6147E00
475,11	1,8149E00
475,47	1,6377E00
475,83	1,1880E00
476,19	9,9897E-01
476,56	5,6528E-01
476,92	5,3788E-01
477,28	1,9647E-01
477,64	3,6754E-01
478,00	1,6052E-01
478,36	2,8675E-01
478,72	4,0923E-01
479,09	-8,4433E-03
479,45	2,4830E-01
479,81	8,3828E-02
480,17	8,9685E-02
480,53	2,9811E-01
480,89	-6,5417E-02
481,25	-1,0727E-01
481,61	2,3641E-01
481,97	-2,1632E-01
482,34	-9,4694E-02
482,70	-4,7919E-02
483,06	4,3756E-01
483,42	3,5089E-01
483,78	6,1332E-02
484,14	-2,0491E-01
484,50	-6,9566E-02
484,86	-1,7442E-01
485,22	1,8932E-01
485,58	-1,1138E-01
485,94	-4,5497E-02
486,31	6,8245E-02
486,67	-2,7891E-01
487,03	-1,3290E-01
487,39	-1,4505E-01
487,75	5,7844E-02
488,11	1,1035E-01
488,47	1,7444E-01
488,83	-7,3027E-03
489,19	-3,5885E-02
489,55	-2,8483E-01
489,91	-1,5452E-01
490,27	-1,1335E-01
490,63	7,6898E-02
490,99	9,1629E-02
491,35	2,1323E-02
491,71	2,0508E-02
492,07	-1,6368E-01
492,43	-2,4380E-01
492,79	-2,5375E-01
493,15	0,0000E00
493,51	-1,8235E-01
493,87	-2,8195E-01
494,23	-1,3574E-02
494,59	-7,3544E-02
494,95	-1,9513E-02
495,31	-8,5197E-02
495,67	1,4280E-01
496,03	1,3168E-02
496,39	-2,2157E-01
496,75	7,7561E-02
497,11	4,4626E-02
497,47	-1,8976E-02
497,83	1,4016E-01
498,19	1,0184E-01
498,55	2,4708E-01
498,91	-8,8037E-02
499,27	-6,9059E-02
499,63	4,3472E-02
499,98	3,7014E-02
500,34	-3,0441E-02
500,70	6,1496E-02
501,06	1,8269E-02
501,42	-1,3344E-01
501,78	-1,1004E-01
502,14	-2,0431E-01
502,50	-1,0666E-01
502,86	2,3474E-02
503,22	-1,1234E-01
503,58	-1,4144E-01
503,94	-1,0067E-01
504,29	8,8026E-02
504,65	3,5231E-02
505,01	-1,1143E-01
505,37	4,7148E-02
505,73	2,8961E-02
506,09	-4,0573E-02
506,45	-1,7376E-02
506,81	3,9949E-02
507,16	-1,1416E-01
507,52	-1,7187E-02
507,88	-4,0440E-02
508,24	-6,3137E-02
508,60	-2,0821E-01
508,96	1,6920E-02
509,32	-2,8454E-02
509,67	-2,9904E-01
510,03	3,9893E-02
510,39	-1,2463E-01
510,75	-1,8525E-01
511,11	3,3847E-02
511,47	-2,2709E-02
511,82	-5,6938E-03
512,18	-2,2608E-02
512,54	7,4628E-02
512,90	-1,0145E-01
513,26	1,7130E-02
513,61	2,8265E-02
513,97	-6,2268E-02
514,33	-1,0745E-01
514,69	-1,4715E-01
515,05	2,1227E-01
515,40	-9,7977E-02
515,76	-2,8766E-01
516,12	-5,6426E-03
516,48	-7,8741E-02
516,83	-1,1445E-02
517,19	1,8653E-01
517,55	-5,7035E-03
517,91	-8,4696E-02
518,26	1,0105E-01
518,62	-1,1285E-02
518,98	2,2817E-02
519,34	4,5496E-02
519,69	-6,0843E-02
520,05	-1,1805E-01
520,41	6,8549E-02
520,77	5,6003E-02
521,12	-2,8275E-02
521,48	1,1881E-01
521,84	-5,6977E-02
522,19	-2,1077E-01
522,55	-1,9369E-01
522,91	-2,5474E-01
523,27	3,3810E-02
523,62	3,3892E-02
523,98	9,0729E-02
524,34	-5,0346E-02
524,69	-1,3675E-01
525,05	-6,7909E-02
525,41	-2,8440E-02
525,76	6,2071E-02
526,12	1,3527E-01
526,48	2,3033E-01
526,83	-1,5249E-01
527,19	-4,4943E-02
527,55	5,0013E-02
527,90	-8,3695E-02
528,26	-1,5714E-01
528,62	-5,5739E-03
528,97	-1,1310E-02
529,33	-1,4466E-01
529,69	-1,8271E-01
530,04	-1,1691E-01
530,40	-1,1172E-01
530,76	-1,7620E-01
531,11	2,7350E-02
531,47	-1,4301E-01
531,82	5,6165E-02
532,18	-1,6555E-02
532,54	-2,3233E-01
532,89	-5,9904E-02
533,25	6,6469E-02
533,60	-2,2461E-01
533,96	-7,1692E-02
534,32	9,2758E-02
534,67	1,6909E-01
535,03	1,2741E-01
535,38	-1,3791E-01
535,74	1,4151E-01
536,10	5,4259E-02
536,45	-1,6015E-02
536,81	-1,2499E-01
537,16	-1,0726E-02
537,52	3,2630E-02
537,87	-4,8840E-02
538,23	-1,0214E-01
538,58	5,3634E-02
538,94	-4,3388E-02
539,30	-1,0546E-01
539,65	-1,2156E-01
540,01	-1,4946E-01
540,36	-6,3952E-02
540,72	-1,5363E-01
541,07	-3,0173E-01
541,43	-1,7326E-01
541,78	5,2614E-03
542,14	-1,9143E-01
542,49	-3,0340E-01
542,85	-1,0407E-01
543,20	-7,3656E-02
543,56	5,2751E-02
543,91	9,8496E-02
544,27	-1,6593E-01
544,62	1,8274E-01
544,98	1,4655E-01
545,33	-8,7635E-02
545,69	-1,7772E-01
546,04	-7,7620E-02
546,40	-6,2310E-02
546,75	-1,0697E-01
547,10	3,1064E-02
547,46	1,5372E-02
547,81	0,0000E00
548,17	4,0841E-02
548,52	-1,1148E-01
548,88	1,5538E-02
549,23	2,0236E-02
549,59	-1,3654E-01
549,94	-6,6037E-02
550,29	-1,4192E-01
550,65	2,0449E-02
551,00	-1,2093E-01
551,36	-1,5131E-01
551,71	0,0000E00
552,06	4,0522E-02
552,42	-4,5836E-02
552,77	3,5260E-02
553,13	-1,9204E-01
553,48	-3,5312E-02
553,83	-1,6123E-01
554,19	-1,0004E-02
554,54	9,5496E-02
554,90	1,0047E-02
555,25	-2,0286E-02
555,60	-2,6388E-01
555,96	2,5248E-02
556,31	-8,6160E-02
556,66	-1,3193E-01
557,02	-7,6138E-02
557,37	3,5422E-02
557,72	-6,6226E-02
558,08	-1,2141E-01
558,43	-1,1734E-01
558,79	-1,4815E-01
559,14	-2,5666E-01
559,49	-2,1972E-01
559,85	-7,6772E-02
560,20	4,6151E-02
560,55	-5,0994E-02
560,90	2,5617E-02
561,26	-5,1441E-02
561,61	2,4562E-01
561,96	-3,0899E-02
562,32	1,4611E-01
562,67	4,1911E-02
563,02	-1,3874E-01
563,38	5,1975E-03
563,73	2,5930E-02
564,08	-2,0827E-02
564,43	-1,5703E-01
564,79	-4,2139E-02
565,14	-1,6106E-01
565,49	1,5762E-02
565,84	-1,0519E-01
566,20	-2,1670E-01
566,55	-5,3040E-03
566,90	-6,9142E-02
567,25	2,6579E-02
567,61	9,0794E-02
567,96	-4,2947E-02
568,31	-2,5296E-01
568,66	3,2132E-02
569,02	1,9434E-01
569,37	-1,0812E-02
569,72	-1,0211E-01
570,07	-4,3007E-02
570,42	-1,0852E-01
570,78	-2,1843E-02
571,13	1,3617E-01
571,48	2,0658E-01
571,83	-1,5956E-01
572,18	-2,0231E-01
572,54	-2,2584E-01
572,89	-8,2905E-02
573,24	0,0000E00
573,59	-8,2592E-02
573,94	-6,4714E-02
574,30	1,4674E-01
574,65	2,1789E-02
575,00	8,7274E-02
575,35	-5,5082E-02
575,70	-3,3578E-02
576,05	-5,4514E-03
576,40	-4,9929E-02
576,76	-4,9919E-02
577,11	-1,1115E-01
577,46	6,0458E-02
577,81	-5,5206E-03
578,16	9,4013E-02
578,51	6,6122E-02
578,86	-1,6044E-01
579,21	-6,1066E-02
579,57	-9,9811E-02
579,92	-4,4457E-02
580,27	5,6103E-03
580,62	-1,0102E-01
580,97	-6,0779E-02
581,32	1,0014E-01
581,67	1,7828E-01
582,02	-2,7925E-02
582,37	-1,6643E-01
582,72	1,3825E-01
583,08	-4,4383E-02
583,43	-1,7312E-01
583,78	-2,3129E-01
584,13	-2,1749E-01
584,48	-1,5565E-01
584,83	0,0000E00
585,18	-1,6158E-01
585,53	-3,3646E-01
585,88	-1,9573E-01
586,23	-4,4817E-02
586,58	-1,3491E-01
586,93	-1,3326E-01
587,28	-8,9858E-02
587,63	-3,9068E-02
587,98	-2,1716E-01
588,33	5,5208E-02
588,68	-1,1166E-02
589,03	2,2239E-02
589,38	9,4828E-02
589,73	-1,6751E-01
590,08	7,8897E-02
590,43	8,9437E-02
590,78	1,1147E-02
591,13	-1,0569E-01
591,48	1,0021E-01
591,83	5,5688E-03
592,18	7,8210E-02
592,53	-1,6805E-01
592,88	0,0000E00
593,23	6,1327E-02
593,58	1,7412E-01
593,93	-5,6728E-03
594,28	-1,4568E-01
594,63	-5,6720E-02
594,98	-6,1450E-02
595,33	8,3984E-02
595,68	-6,7692E-02
596,02	1,9646E-01
596,37	8,5145E-02
596,72	-2,3268E-01
597,07	-1,4142E-01
597,42	2,8224E-02
597,77	1,6939E-02
598,12	-1,6951E-02
598,47	-1,9925E-01
598,82	-6,7994E-02
599,17	0,0000E00
599,52	-1,1364E-02
599,86	-5,6779E-02
600,21	-1,3783E-01
600,56	-9,7529E-02
600,91	-1,7729E-01
601,26	-2,5463E-01
601,61	-8,5884E-02
601,96	-2,2972E-01
602,30	-1,9511E-01
602,65	-2,3070E-01
603,00	3,4596E-02
603,35	-2,8950E-02
603,70	1,3847E-01
604,05	2,3182E-02
604,40	-1,3506E-01
604,74	4,6442E-02
605,09	-2,4993E-01
605,44	-5,8500E-02
605,79	-2,9444E-01
606,14	-1,3619E-01
606,48	-3,5394E-02
606,83	-8,8230E-02
607,18	-1,0019E-01
607,53	2,0899E-01
607,88	-2,7828E-01
608,22	-8,3145E-02
608,57	-2,9851E-02
608,92	-1,9250E-01
609,27	1,4440E-01
609,62	-1,0332E-01
609,96	-9,6392E-02
610,31	6,6736E-02
610,66	6,0823E-03
611,01	4,8982E-02
611,35	-2,0844E-01
611,70	9,7967E-02
612,05	1,2254E-02
612,40	1,2292E-02
612,74	-4,3255E-02
613,09	-1,9938E-01
613,44	-1,1816E-01
613,79	-2,2394E-01
614,13	-1,1203E-01
614,48	6,2796E-03
614,83	-2,1961E-01
615,17	-1,5123E-01
615,52	-1,6463E-01
615,87	-2,5028E-01
616,22	-1,7139E-01
616,56	1,2735E-01
616,91	1,9220E-02
617,26	-8,2735E-02
617,60	-3,8272E-02
617,95	2,8748E-01
618,30	1,2809E-01
618,64	1,2880E-02
618,99	-7,0716E-02
619,34	-1,7496E-01
619,68	-1,1656E-01
620,03	-9,1178E-02
620,38	1,5665E-01
620,72	-8,4276E-02
621,07	1,1802E-01
621,42	5,8826E-02
621,76	-1,8200E-01
622,11	-1,2512E-01
622,45	-1,6422E-01
622,80	-1,8560E-01
623,15	-1,9956E-01
623,49	-2,1050E-01
623,84	-1,3315E-02
624,18	-8,0388E-02
624,53	-5,9554E-02
624,88	-1,4555E-01
625,22	-1,1414E-01
625,57	9,3769E-02
625,91	9,4018E-02
626,26	-2,3548E-01
626,61	-2,6876E-02
626,95	-1,3499E-02
627,30	-2,3694E-01
627,64	3,3486E-02
627,99	2,0295E-02
628,33	6,7652E-02
628,68	-1,0908E-01
629,03	-6,8178E-02
629,37	-2,0366E-01
629,72	4,1266E-02
630,06	-4,8135E-02
630,41	2,0636E-02
630,75	-1,8657E-01
631,10	-2,2159E-01
631,44	-1,3859E-02
631,79	3,9058E-01
632,13	-7,6775E-02
632,48	5,5591E-02
632,82	-1,8028E-01
633,17	-2,8075E-02
633,51	-1,8758E-01
633,86	-2,6438E-01
634,20	-2,1044E-02
634,55	6,9517E-02
634,89	-8,4397E-02
635,24	1,4005E-01
635,58	-1,3995E-02
635,93	-1,4188E-01
636,27	-1,0626E-01
636,62	-1,7615E-01
636,96	7,0430E-02
637,30	-4,9438E-02
637,65	-7,7926E-02
637,99	3,5616E-02
638,34	7,0899E-02
638,68	-6,4198E-02
639,03	-1,3507E-01
639,37	-5,7488E-02
639,71	-1,4464E-02
640,06	-3,0759E-01
640,40	-5,0142E-02
640,75	9,3124E-02
641,09	-2,4533E-01
641,44	2,6907E-01
641,78	1,4429E-01
642,12	-2,5615E-01
642,47	-7,1689E-03
642,81	1,4469E-01
643,15	-6,5373E-02
643,50	5,0880E-02
643,84	7,2812E-02
644,19	8,0157E-02
644,53	2,1897E-02
644,87	-1,0973E-01
645,22	-1,5445E-01
645,56	-9,5802E-02
645,90	-1,3202E-01
646,25	-6,6852E-02
646,59	-1,5499E-01
646,93	1,2535E-01
647,28	-4,4433E-02
647,62	-2,2984E-01
647,96	0,0000E00
648,31	-2,2305E-01
648,65	-1,1918E-01
648,99	-5,2409E-02
649,34	-1,2041E-01
649,68	-9,7277E-02
650,02	-2,2605E-02
650,36	-1,8075E-01
650,71	-1,7247E-01
651,05	-1,2104E-01
651,39	1,2063E-01
651,74	4,5360E-02
652,08	-1,6644E-01
652,42	-1,5134E-01
652,76	2,3776E-01
653,11	-9,1678E-02
653,45	-3,9094E-01
653,79	-3,0702E-02
654,13	-1,6882E-01
654,48	-3,0895E-02
654,82	-4,6774E-02
655,16	-5,4545E-02
655,50	1,4875E-01
655,85	1,4084E-01
656,19	-1,0074E-01
656,53	-3,1430E-02
656,87	-8,6433E-02
657,21	-7,0353E-02
657,56	8,6168E-02
657,90	0,0000E00
658,24	-2,8445E-01
658,58	-2,3633E-02
658,92	-4,7100E-02
659,27	-1,5857E-02
659,61	-3,1690E-02
659,95	3,1650E-02
660,29	1,1953E-01
660,63	2,3970E-02
660,97	7,9897E-03
661,32	-9,6945E-02
661,66	-3,2359E-02
662,00	-1,7657E-01
662,34	-1,7874E-01
662,68	-1,0508E-01
663,02	-8,1159E-03
663,37	-1,6257E-02
663,71	2,4432E-02
664,05	7,3200E-02
664,39	3,3055E-02
664,73	4,1369E-02
665,07	-2,3126E-01
665,41	-7,4392E-02
665,75	-1,5785E-01
666,09	-8,3426E-03
666,44	-7,5583E-02
666,78	-2,1781E-01
667,12	-2,1120E-01
667,46	-2,9521E-01
667,80	-3,2263E-01
668,14	0,0000E00
668,48	-1,5307E-01
668,82	6,7417E-02
669,16	-8,5162E-02
669,50	1,6999E-02
669,84	2,0434E-01
670,18	5,1802E-02
670,52	-2,3300E-01
670,86	-4,0579E-01
671,20	-7,7797E-02
671,54	1,3892E-01
671,88	6,9785E-02
672,22	-1,4717E-01
672,57	7,9251E-02
672,91	-2,5367E-01
673,25	-4,4002E-02
673,59	1,9416E-01
673,93	-1,0695E-01
674,27	-1,9595E-01
674,61	4,5126E-02
674,95	-3,3007E-01
675,28	-3,5932E-01
675,62	-1,6189E-01
675,96	-3,0930E-01
676,30	4,5000E-02
676,64	-8,1318E-02
676,98	-1,8259E-01
677,32	-5,6865E-01
677,66	-2,4967E-01
678,00	2,1156E-01
678,34	0,0000E00
678,68	1,0219E-01
679,02	-3,7172E-01
679,36	1,3013E-01
679,70	2,2474E-01
680,04	-1,4989E-01
680,38	-1,8825E-02
680,72	-2,2579E-01
681,06	-9,4715E-03
681,39	-1,5958E-01
681,73	-2,2664E-01
682,07	2,8520E-02
682,41	1,6231E-01
682,75	-1,2429E-01
683,09	1,5232E-01
683,43	-4,8624E-01
683,77	-2,3183E-01
684,11	8,7301E-02
684,44	4,8559E-02
684,78	-8,7988E-02
685,12	1,9368E-02
685,46	1,7650E-01
685,80	-4,2284E-01
686,14	-3,7340E-01
686,48	8,8165E-02
686,81	1,6763E-01
687,15	-2,9529E-02
687,49	5,9117E-02
687,83	-1,5932E-01
688,17	9,9440E-03
688,51	-3,0015E-01
688,84	-1,6101E-01
689,18	1,2104E-01
689,52	6,0833E-02
689,86	-3,4304E-01
690,20	1,0201E-02
690,53	-1,3261E-01
690,87	1,2103E-01
691,21	-1,9339E-01
691,55	-3,9973E-01
691,88	2,0561E-01
692,22	-2,5710E-01
692,56	-3,8964E-01
692,90	-3,0702E-02
693,23	-4,0140E-01
693,57	-4,7328E-01
693,91	-4,3488E-01
694,25	-1,8939E-01
694,58	-3,1288E-01
694,92	-1,1467E-01
695,26	-3,3604E-01
695,60	-2,1009E-01
695,93	1,6872E-01
696,27	-1,0479E-01
696,61	-2,1154E-02
696,94	-7,3939E-02
697,28	1,5778E-01
697,62	1,9136E-01
697,96	6,8080E-01
698,29	0,0000E00
698,63	-6,4387E-02
698,97	-1,1741E-01
699,30	-5,3332E-02
699,64	-9,6508E-02
699,98	8,5499E-02
700,31	-2,1395E-01
700,65	-3,7790E-01
700,99	-1,2898E-01
701,32	-1,0815E-01
701,66	-3,8797E-01
702,00	-2,2742E-01
702,33	-5,5396E-01
702,67	-3,7861E-01
703,00	5,5102E-02
703,34	1,0844E-02
703,68	-2,4053E-01
704,01	-3,4127E-01
704,35	-1,4585E-01
704,69	-1,8592E-01
705,02	-4,4462E-02
705,36	-5,5180E-02
705,69	1,7740E-01
706,03	-7,5213E-01
706,36	-1,1189E-02
706,70	6,6453E-02
707,04	-9,9550E-02
707,37	1,0045E-01
707,71	1,0032E-01
708,04	-2,2373E-02
708,38	-5,6305E-02
708,71	2,3390E-01
709,05	2,9050E-01
709,39	1,6823E-01
709,72	1,1287E-02
710,06	-3,5964E-01
710,39	2,0351E-01
710,73	-2,2506E-02
711,06	-5,1010E-01
711,40	-1,8144E-01
711,73	5,6648E-02
712,07	3,6111E-01
712,40	-1,1347E-01
712,74	1,1394E-02
713,07	7,9538E-02
713,41	-3,4120E-01
713,74	-3,5166E-01
714,08	-2,2936E-01
714,41	-1,7328E-01
714,75	5,7157E-02
715,08	-9,1732E-02
715,42	-6,9006E-02
715,75	-4,3826E-01
716,08	-1,0368E-01
716,42	-1,5012E-01
716,75	4,4636E-01
717,09	9,2990E-02
717,42	-2,2074E-01
717,76	4,5912E-02
718,09	-8,1077E-02
718,43	-2,5666E-01
718,76	-1,7327E-01
719,09	-9,3140E-02
719,43	-3,8325E-01
719,76	-3,3980E-01
720,10	-2,6886E-01
720,43	3,5127E-02
720,76	-5,5991E-01
721,10	-9,3499E-02
721,43	4,7188E-02
721,76	1,0594E-01
722,10	-1,2973E-01
722,43	-3,8972E-01
722,77	2,4699E-01
723,10	6,3799E-01
723,43	-2,0148E-01
723,77	1,1956E-01
724,10	-5,3270E-01
724,43	1,0655E-01
724,77	-3,8122E-01
725,10	-3,5970E-02
725,43	2,2628E-01
725,77	1,0759E-01
726,10	-1,7880E-01
726,43	-4,0842E-01
726,77	-4,7772E-02
727,10	-2,7604E-01
727,43	-2,4002E-02
727,77	-1,3242E-01
728,10	-4,4655E-01
728,43	-4,9484E-01
728,76	-3,6385E-01
729,10	-1,2153E-01
729,43	-1,5912E-01
729,76	-2,5827E-01
730,09	2,4474E-01
730,43	-1,4650E-01
730,76	-5,6535E-01
731,09	1,4732E-01
731,42	-3,6841E-02
731,76	-5,7919E-01
732,09	-1,2283E-02
732,42	2,4791E-02
732,75	-4,4512E-01
733,09	-1,2334E-02
733,42	-1,2562E-01
733,75	-7,5137E-02
734,08	-3,7553E-02
734,41	-3,7682E-02
734,75	-1,6244E-01
735,08	1,9049E-01
735,41	1,3958E-01
735,74	-3,4038E-01
736,07	-3,5597E-01
736,41	-1,6363E-01
736,74	-5,1520E-02
737,07	-2,2912E-01
737,40	-2,3097E-01
737,73	-2,8042E-01
738,06	5,1374E-02
738,40	1,0159E-01
738,73	-3,0718E-01
739,06	-4,2731E-01
739,39	-2,5952E-01
739,72	-3,2223E-01
740,05	1,3037E-02
740,38	1,3024E-02
740,72	6,5466E-02
741,05	-2,0881E-01
741,38	1,6981E-01
741,71	-3,8358E-01
742,04	-1,9699E-01
742,37	-1,0623E-01
742,70	-5,5796E-01
743,03	-5,3323E-02
743,36	1,8720E-01
743,69	2,6530E-02
744,02	-1,6167E-01
744,36	-6,3165E-01
744,69	-1,0708E-01
745,02	1,7521E-01
745,35	-2,5817E-01
745,68	-2,4572E-01
746,01	-2,3203E-01
746,34	-6,0995E-01
746,67	-3,0108E-01
747,00	-5,6126E-01
747,33	-1,5051E-01
747,66	-1,7983E-01
747,99	-8,2937E-02
748,32	1,5194E-01
748,65	-1,5263E-01
748,98	1,2568E-01
749,31	-1,1181E-01
749,64	9,7847E-02
749,97	1,6856E-01
750,30	1,1282E-01
750,63	-2,6869E-01
750,96	1,2765E-01
751,29	2,5406E-01
751,62	-4,1144E-01
751,95	-8,1445E-01
752,28	-1,0034E-01
752,61	-1,4395E-02
752,94	-2,7421E-01
753,27	1,8869E-01
753,60	-1,4499E-02
753,92	-4,3254E-01
754,25	-3,5114E-01
754,58	-7,2842E-01
754,91	3,0973E-01
755,24	-1,7640E-01
755,57	-1,0263E-01
755,90	-4,8840E-01
756,23	-4,2935E-01
756,56	1,0396E-01
756,89	-2,2274E-01
757,22	-1,4963E-01
757,54	-4,4975E-02
757,87	4,0693E-01
758,20	-1,0535E-01
758,53	-9,0981E-02
758,86	3,3367E-01
759,19	-1,9751E-01
759,52	9,1161E-02
759,84	2,7405E-01
760,17	-3,8156E-01
760,50	-5,5411E-01
760,83	-6,4611E-01
761,16	-2,0386E-01
761,49	-1,7129E-01
761,81	-1,5481E-01
762,14	-3,2772E-01
762,47	3,1876E-02
762,80	-1,2510E-01
763,13	-2,3649E-01
763,45	1,2692E-01
763,78	-9,2377E-01
764,11	3,0037E-01
764,44	-6,5795E-01
764,77	-2,0663E-01
765,09	5,2840E-01
765,42	-4,6455E-01
765,75	-3,3741E-01
766,08	2,7243E-01
766,40	-3,2225E-01
766,73	-1,6208E-01
767,06	-4,2265E-01
767,39	8,1840E-02
767,71	2,1062E-01
768,04	-1,9841E-01
768,37	-6,1162E-01
768,70	-5,1401E-01
769,02	2,6341E-01
769,35	-1,1630E-01
769,68	-4,9332E-02
770,00	-3,3146E-01
770,33	-6,4735E-01
770,66	0,0000E00
770,99	-7,9778E-01
771,31	-9,2378E-01
771,64	-3,3977E-01
771,97	-3,2401E-01
772,29	-7,8518E-01
772,62	-7,8658E-01
772,95	-2,9540E-01
773,27	-5,1895E-02
773,60	-2,7714E-01
773,93	-4,1297E-01
774,25	-1,3838E-01
774,58	1,0353E-01
774,90	-1,5641E-01
775,23	-2,9748E-01
775,56	1,9297E-01
775,88	1,4017E-01
776,21	-3,1710E-01
776,54	1,7556E-01
776,86	-3,8999E-01
777,19	-5,3059E-01
777,51	-3,5820E-01
777,84	-1,7924E-02
778,16	5,3767E-02
778,49	-1,6255E-01
778,82	-2,3341E-01
779,14	-1,2123E00
779,47	-5,4216E-02
779,79	-9,1616E-02
780,12	1,8349E-02
780,44	-3,8450E-01
780,77	0,0000E00
781,10	3,2936E-01
781,42	-7,6936E-01
781,75	1,4990E-01
782,07	-2,4400E-01
782,40	-3,7310E-02
782,72	-6,7160E-01
783,05	-3,5618E-01
783,37	6,8410E-01
783,70	4,5697E-01
784,02	-9,4135E-02
784,35	-8,5917E-01
784,67	-6,4898E-01
785,00	-1,3418E-01
785,32	-2,9005E-01
785,65	-3,8853E-02
785,97	-3,8653E-02
786,30	-4,0996E-01
786,62	-2,2980E-01
786,94	2,1622E-01
787,27	-4,4756E-01
787,59	-9,5183E-01
787,92	1,9404E-02
788,24	4,7030E-01
788,57	-6,8196E-01
788,89	-7,8615E-02
789,22	5,4909E-01
789,54	-3,7083E-01
789,86	-2,5492E-01
790,19	-2,5603E-01
790,51	-5,5142E-01
790,84	-4,9370E-01
791,16	-4,5496E-01
791,48	3,9504E-01
791,81	2,5642E-01
792,13	1,3689E-01
792,45	3,9467E-02
792,78	-4,7481E-01
793,10	-7,8552E-02
793,43	-8,6509E-01
793,75	-4,3221E-01
794,07	6,7259E-01
794,40	-3,1350E-01
794,72	-1,1695E-01
795,04	-1,1699E00
795,37	-3,9055E-01
795,69	-1,1848E-01
796,01	-9,7630E-02
796,34	-5,0386E-01
796,66	-7,4010E-01
796,98	-1,9221E-01
797,30	-1,3632E-01
797,63	-3,2601E-01
797,95	-4,5878E-01
798,27	-8,4532E-01
798,60	-9,2049E-01
798,92	-2,3099E-01
799,24	-1,0732E00
799,56	-7,6952E-02
799,89	-1,9316E-02
800,21	2,1192E-01
800,53	-3,8391E-01
800,85	6,3567E-01
801,18	9,2266E-01
801,50	-3,8431E-02
801,82	-1,9084E-02
802,14	-2,5118E-01
802,47	-1,7350E-01
802,79	-5,7784E-02
803,11	-1,9171E-01
803,43	-5,6865E-01
803,75	-1,9170E-02
804,08	-2,1063E-01
804,40	3,0734E-01
804,72	-6,0933E-01
805,04	-2,6866E-01
805,36	-6,6091E-01
805,69	6,3654E-01
806,01	-6,2061E-01
806,33	-7,7163E-02
806,65	-4,8749E-01
806,97	-6,7490E-01
807,29	5,8536E-02
807,62	-5,7911E-02
807,94	-7,8021E-01
808,26	-1,1740E-01
808,58	0,0000E00
808,90	1,7667E-01
809,22	-5,6622E-01
809,54	7,8687E-02
809,86	-4,6732E-01
810,18	-3,3426E-01
810,51	3,9373E-01
810,83	-3,1603E-01
811,15	-1,5764E-01
811,47	-7,8813E-02
811,79	-1,3803E-01
812,11	-1,4154E00
812,43	-5,1825E-01
812,75	1,8051E-01
813,07	-6,0446E-02
813,39	-6,6333E-01
813,71	-2,8323E-01
814,03	2,6260E-01
814,35	2,2300E-01
814,67	-4,0674E-02
814,99	-7,2793E-01
815,31	-7,2553E-01
815,64	-2,0358E-01
815,96	-5,4545E-01
816,28	-2,6282E-01
816,60	-7,7824E-01
816,92	-6,5539E-01
817,24	-2,8892E-01
817,56	-7,3992E-01
817,88	-2,4891E-01
818,19	1,6471E-01
818,51	-1,4480E-01
818,83	-1,0332E-01
819,15	8,3627E-02
819,47	7,3139E-01
819,79	2,0747E-01
820,11	7,1314E-01
820,43	-2,7556E-01
820,75	3,1344E-01
821,07	-4,8673E-01
821,39	-2,5598E-01
821,71	-7,1626E-01
822,03	-4,2911E-01
822,35	-8,3579E-01
822,67	-2,5709E-01
822,99	-8,7847E-01
823,31	-7,6749E-01
823,62	-6,9145E-01
823,94	-6,7011E-01
824,26	-1,3318E00
824,58	-7,1548E-01
824,90	-3,4957E-01
825,22	-4,6363E-01
825,54	-3,5345E-01
825,86	-1,9859E-01
826,17	-2,2303E-01
826,49	1,9932E-01
826,81	-1,0230E00
827,13	3,1533E-01
827,45	-6,2537E-01
827,77	4,8986E-01
828,08	-2,6981E-01
828,40	-3,1812E-01
828,72	6,8054E-02
829,04	-2,4812E-01
829,36	-1,1049E00
829,67	-4,1125E-01
829,99	-4,8069E-01
830,31	-1,1528E-01
830,63	-3,2453E-01
830,95	-1,1549E-01
831,26	-6,9485E-02
831,58	-2,0899E-01
831,90	-6,9558E-02
832,22	5,8467E-01
832,53	-2,0992E-01
832,85	-1,3660E00
833,17	-9,5072E-02
833,49	0,0000E00
833,80	-7,1735E-02
834,12	-6,9215E-01
834,44	-6,7226E-01
834,76	-8,5134E-01
835,07	-1,9379E-01
835,39	-5,7732E-01
835,71	7,1873E-02
836,02	-8,9282E-01
836,34	2,9136E-01
836,66	1,9347E-01
836,97	0,0000E00
837,29	-5,3913E-01
837,61	-6,1222E-01
837,93	1,4723E-01
838,24	-9,3957E-01
838,56	-2,4900E-02
838,88	-5,7428E-01
839,19	-6,9206E-01
839,51	1,2543E-01
839,82	-8,7965E-01
840,14	1,5118E-01
840,46	-1,0140E-01
840,77	-3,0409E-01
841,09	-2,8092E-01
841,41	-7,3657E-01
841,72	-4,1049E-01
842,04	7,7884E-02
842,35	-2,5652E-01
842,67	-3,6058E-01
842,99	-2,8449E-01
843,30	-1,4403E00
843,62	-5,4860E-01
843,93	-1,0474E-01
844,25	-7,8391E-02
844,56	-6,6154E-01
844,88	-2,9166E-01
845,20	-8,1892E-01
845,51	-7,9565E-01
845,83	1,8860E-01
846,14	-2,9360E-01
846,46	-6,1833E-01
846,77	-1,1666E00
847,09	-1,8895E-01
847,40	-9,4673E-01
847,72	-8,4430E-01
848,03	-1,2819E00
848,35	-8,5255E-01
848,66	-4,6653E-01
848,98	-1,0783E00
849,29	-4,4275E-01
849,61	3,0480E-01
849,92	2,7882E-01
850,24	-4,1821E-01
850,55	-7,9185E-01
850,87	-7,6021E-01
851,18	-3,1311E-01
851,50	7,0907E-01
851,81	4,0262E-01
852,12	-2,8505E-02
852,44	1,2396E00
852,75	1,4775E00
853,07	-1,1187E00
853,38	-4,0527E-01
853,70	-2,9008E-02
854,01	-4,3751E-01
854,32	3,8166E-01
854,64	-7,1504E-01
854,95	-1,7612E-01
855,27	-5,8946E-01
855,58	-1,2789E00
855,89	-1,5676E00
856,21	-6,8836E-01
856,52	-5,7203E-01
856,83	-8,6754E-01
857,15	-6,0461E-01
857,46	4,2672E-01
857,77	-1,5329E-01
858,09	-1,0259E00
858,40	-5,8059E-01
858,71	-1,2962E00
859,03	-8,6835E-01
859,34	1,1791E00
859,65	4,3449E-01
859,97	-4,0854E-01
860,28	-7,8158E-01
860,59	-1,5761E-01
860,91	-1,2411E00
861,22	-8,5876E-01
861,53	0,0000E00
861,84	-3,5240E-01
862,16	-5,7662E-01
862,47	-6,4846E-01
862,78	-9,6608E-01
863,10	-3,8706E-01
863,41	5,1781E-01
863,72	-6,5794E-02
864,03	-3,6233E-01
864,35	2,9765E-01
864,66	-4,5405E-01
864,97	-9,6659E-01
865,28	2,6620E-01
865,59	-1,6816E-01
865,91	-3,3505E-01
866,22	2,6964E-01
866,53	1,3666E-01
866,84	-1,1188E00
867,15	-1,0845E00
867,47	-3,1128E-01
867,78	-6,2348E-01
868,09	-7,9514E-01
868,40	1,2210E00
868,71	-2,4591E-01
869,02	1,7535E-01
869,34	-1,0171E00
869,65	5,7241E-01
869,96	-1,0761E00
870,27	3,9216E-01
870,58	3,5692E-01
870,89	-1,4473E-01
871,20	-1,0443E00
871,52	-1,3117E00
871,83	-2,9030E-01
872,14	-7,6750E-01
872,45	-2,1101E00
872,76	-9,6218E-01
873,07	-1,2824E00
873,38	-1,3152E00
873,69	-5,9772E-01
874,00	-3,7378E-02
874,31	4,5150E-01
874,62	-7,1770E-01
874,94	5,3084E-01
875,25	-7,5910E-02
875,56	-2,6596E-01
875,87	0,0000E00
876,18	-6,9762E-01
876,49	-6,1116E-01
876,80	-4,6643E-01
877,11	-4,2595E-01
877,42	3,1398E-01
877,73	-4,7195E-01
878,04	-4,7323E-01
878,35	3,1453E-01
878,66	-3,5311E-01
878,97	1,6120E-01
879,28	-9,0205E-01
879,59	-8,0307E-01
879,90	-7,2677E-01
880,21	-1,6781E00
880,52	-4,8007E-01
880,83	-1,9834E-01
881,14	4,4591E-01
881,45	-1,7978E00
881,76	-9,5165E-01
882,07	-3,6319E-01
882,37	-1,3390E00
882,68	3,9820E-02
882,99	-4,4195E-01
883,30	-9,6403E-01
883,61	-2,1521E00
883,92	-2,8526E-01
884,23	7,9949E-02
884,54	-1,2095E-01
884,85	-1,5615E00
885,16	-6,0860E-01
885,47	-9,2974E-01
885,77	-1,0934E00
886,08	-3,2332E-01
886,39	1,2060E-01
886,70	-1,0236E00
887,01	-6,0638E-01
887,32	-1,9985E-01
887,63	-1,0181E00
887,93	-1,5903E-01
888,24	-7,5784E-01
888,55	-7,9991E-02
888,86	-1,1621E00
889,17	-9,9661E-01
889,47	-2,3133E00
889,78	-1,1611E00
890,09	-1,0930E00
890,40	-1,8232E00
890,71	-8,8131E-01
891,01	6,4690E-01
891,32	-2,1736E00
891,63	-7,6276E-01
891,94	-9,3765E-01
892,25	-1,6567E00
892,55	6,0073E-01
892,86	-4,8111E-01
893,17	-4,0081E-01
893,48	-3,6021E-01
893,78	-8,3858E-01
894,09	-9,5448E-01
894,40	-4,4309E-01
894,70	-1,2480E00
895,01	-3,9978E-02
895,32	-2,2767E00
895,63	-9,5546E-01
895,93	-8,0352E-01
896,24	-1,4015E00
896,55	-7,5834E-01
896,85	-1,0356E00
897,16	-1,1483E00
897,47	-3,9924E-01
897,77	1,0794E00
898,08	-2,7988E-01
898,39	-7,3465E-01
898,69	-1,6094E-01
899,00	-2,8251E-01
899,31	8,4928E-01
899,61	4,0905E-02
899,92	4,9766E-01
900,23	-1,6209E-01
900,53	-1,3430E00
900,84	2,0308E-01
901,14	8,2125E-02
901,45	-1,0564E00
901,76	-8,6716E-01
902,06	1,4843E00
902,37	-4,5272E-01
902,67	3,3266E-01
902,98	-6,2181E-01
903,29	8,4002E-02
903,59	2,4786E-01
903,90	2,0954E-01
904,20	-8,4028E-02
904,51	-1,0133E00
904,81	-1,1443E00
905,12	1,3064E00
905,42	-4,6402E-01
905,73	-1,0071E00
906,03	-1,1431E00
906,34	-1,3036E00
906,64	1,6633E00
906,95	-1,1442E00
907,25	-1,2961E00
907,56	-1,6015E00
907,86	-7,8737E-01
908,17	4,3723E-02
908,47	1,3209E-01
908,78	-8,3593E-01
909,08	-4,4325E-01
909,39	-5,8108E-01
909,69	-8,4569E-01
910,00	-1,0648E00
910,30	-1,4973E00
910,61	-2,5635E00
910,91	-8,9838E-01
911,21	2,7468E-01
911,52	-7,2822E-01
911,82	-2,2787E-01
912,13	-2,7650E-01
912,43	1,3522E-01
912,74	-1,4496E00
913,04	-5,5099E-01
913,34	2,3526E-01
913,65	5,1901E-01
913,95	-9,4289E-01
914,25	5,1936E-01
914,56	4,7435E-02
914,86	-2,3929E-01
915,17	-1,1482E00
915,47	-8,7483E-01
915,77	-3,4364E-01
916,08	-9,7916E-02
916,38	-1,1770E00
916,68	-1,6157E00
916,99	6,4137E-01
917,29	1,1305E00
917,59	1,2381E00
917,90	-1,0012E00
918,20	6,4537E-01
918,50	-7,4452E-01
918,80	-1,5802E00
919,11	-1,0219E-01
919,41	-2,1648E00
919,71	-3,5875E-01
920,02	-7,7106E-01
920,32	-1,0804E00
920,62	-1,4593E00
920,92	-1,5654E00
921,23	-6,2451E-01
921,53	2,1106E-01
921,83	-1,3116E00
922,13	-1,0526E00
922,44	-1,2867E00
922,74	-6,5111E-01
923,04	-2,1480E-01
923,34	4,3501E-01
923,64	-6,0498E-01
923,95	-2,1930E-01
924,25	1,5948E00
924,55	3,3205E-01
924,85	1,6922E-01
925,15	-7,8656E-01
925,46	1,1234E00
925,76	-1,4206E00
926,06	-8,0441E-01
926,36	-1,8940E00
926,66	-3,0605E00
926,96	-1,5124E00
927,26	-9,3297E-01
927,57	-1,3866E00
927,87	-8,2576E-01
928,17	-8,2657E-01
928,47	1,1898E00
928,77	5,9814E-02
929,07	-1,7975E-01
929,37	-1,8695E00
929,67	-1,1396E00
929,98	-3,1640E00
930,28	-1,9461E00
930,58	-8,5441E-01
930,88	2,1552E00
931,18	1,5474E00
931,48	2,4955E-01
931,78	-1,2792E-01
932,08	-8,9658E-01
932,38	-6,4062E-01
932,68	-2,5565E-01
932,98	-2,7428E00
933,28	-2,2213E00
933,58	-1,6010E00
933,88	1,5796E00
934,18	-3,8677E-01
934,48	1,9786E00
934,78	-5,3571E-01
935,08	-2,6799E00
935,38	1,4889E00
935,68	1,4218E00
935,98	1,1561E00
936,28	-9,5804E-01
936,58	3,4662E-01
936,88	-3,4873E-01
937,18	7,0893E-01
937,48	-2,3817E00
937,78	1,8134E00
938,08	-2,1145E-01
938,38	-3,4934E00
938,68	-1,2442E00
938,98	-4,2578E-01
939,28	0,0000E00
939,57	-2,4640E00
939,87	2,9239E-01
940,17	-1,4725E-01
940,47	-7,4011E-02
940,77	-5,8907E-01
941,07	-7,5468E-02
941,37	-6,0566E-01
941,67	8,2895E-01
941,97	-1,5181E00
942,26	-1,4709E00
942,56	1,5374E-01
942,86	-1,1623E00
943,16	-2,4606E00
943,46	-1,6968E00
943,76	-2,7347E00
944,06	-2,3819E00
944,35	-2,3091E00
944,65	-2,1737E00
944,95	-2,9721E00
945,25	-1,7066E00
945,55	-3,3659E00
945,84	-1,7047E00
946,14	-1,8162E00
946,44	0,0000E00
946,74	1,6523E-01
947,03	1,0135E00
947,33	-2,7849E00
947,63	-1,0291E00
947,93	-4,1633E-01
948,23	-1,7022E-01
948,52	1,7533E-01
948,82	2,4454E00
949,12	-2,2979E00
949,41	-7,0469E-01
949,71	4,5037E-01
950,01	1,6268E00
950,31	1,5463E00
950,60	-4,8853E00
950,90	-6,5651E-01
951,20	1,6909E00
951,49	-1,1084E00
951,79	1,9524E00
952,09	2,1693E00
952,38	2,8585E-01
952,68	-9,6328E-02
952,98	-1,4554E00
953,27	-2,9600E00
953,57	-6,8207E-01
953,87	-3,1692E00
954,16	-5,8921E-01
954,46	5,9748E-01
954,76	-2,0276E00
955,05	-4,6109E00
955,35	-2,6374E00
955,64	-3,4348E00
955,94	-1,1185E00
956,24	-2,1582E00
956,53	-2,1971E00
956,83	1,7886E00
957,12	-1,6630E00
957,42	-2,1497E-01
957,72	5,3253E-01
958,01	-1,0781E-01
958,31	4,3486E-01
958,60	-2,4934E00
958,90	3,0928E00
959,19	6,6060E-01
959,49	1,7953E00
959,78	-1,0048E00
960,08	-5,2945E00
960,37	-2,0390E00
960,67	-2,3105E00
960,96	-1,2604E00
961,26	-5,5436E00
961,55	-6,9886E-01
961,85	-2,1067E00
962,14	-1,5469E00
962,44	-3,1245E00
962,73	-4,1029E00
963,03	-8,3720E-01
963,32	1,4765E00
963,62	4,9174E-01
963,91	3,2016E00
964,21	-5,0267E-01
964,50	2,4493E-01
964,80	4,4914E00
965,09	-1,1045E00
965,38	-2,2934E00
965,68	-1,4467E00
965,97	-6,9260E00
966,27	-4,0019E00
966,56	-5,7576E00
966,85	-1,8378E00
967,15	-5,6461E00
967,44	-1,4976E00
967,74	-2,5243E00
968,03	-1,3404E-01
968,32	1,0848E00
968,62	-8,3140E-01
968,91	-3,3011E00
969,20	1,9710E00
969,50	4,1598E00
969,79	2,6952E00
970,08	-2,8244E-01
970,38	1,4433E-01
970,67	-1,5520E00
970,96	1,8855E00
971,26	2,5079E00
971,55	7,5576E-01
971,84	-2,0699E00
972,13	2,0985E00
972,43	-1,5257E-01
972,72	9,3773E-01
973,01	-4,7229E-01
973,31	-6,2308E-01
973,60	-4,1450E00
973,89	3,1478E00
974,18	-8,0102E-01
974,48	1,1326E00
974,77	-6,5009E00
975,06	-1,6148E00
975,35	4,5078E00
975,64	1,8244E00
975,94	3,3330E-01
976,23	-2,1848E00
976,52	6,8629E-01
976,81	-2,7930E00
977,10	1,9414E00
977,40	-2,1111E00
977,69	-1,5535E00
977,98	-3,9760E00
978,27	2,6584E00
978,56	1,2410E00
978,86	2,5202E00
979,15	-5,5440E-01
979,44	-3,6973E00
979,73	-9,6020E-01
980,02	1,1378E00
980,31	-3,9017E00
980,60	-3,0505E00
980,89	-3,3716E00
981,19	-7,2455E00
981,48	-1,3486E00
981,77	-5,8453E-01
982,06	-4,0182E-01
982,35	-5,2188E00
982,64	3,4613E00
982,93	2,4866E00
983,22	-4,0988E00
983,51	2,5322E00
983,80	-8,9753E00
984,09	-4,1972E-01
984,38	-5,9579E00
984,67	-3,6313E00
984,96	-6,0062E00
985,25	-3,8501E00
985,55	-1,1297E01
985,84	-8,9438E-01
986,13	-2,1759E-01
986,42	-6,1789E00
986,71	-6,8816E-01
987,00	-3,4501E00
987,29	-4,5965E-01
987,58	1,3153E01
987,86	4,2636E00
988,15	9,7353E-01
988,44	-2,9149E00
988,73	-1,4259E01
989,02	-8,7663E00
989,31	-6,4158E00
989,60	-7,0966E00
989,89	-6,1405E00
990,18	-1,0244E00
990,47	-4,6540E00
990,76	-4,2265E00
991,05	1,2923E00
991,34	-9,9735E00
991,63	-1,0589E01
991,92	4,2198E00
992,20	4,0254E00
992,49	-8,1341E00
992,78	-8,4102E00
993,07	1,1047E00
993,36	5,4487E00
993,65	-3,4492E00
993,94	-7,0480E00
994,22	2,2865E00
994,51	-8,1078E00
994,80	-7,0253E00
995,09	-9,1148E-01
995,38	-6,5168E00
995,67	-5,4977E00
995,95	9,4394E00
996,24	-4,6014E00
996,53	2,1447E00
996,82	-1,2426E01
997,11	3,2589E-01
997,39	-1,3018E00
997,68	-8,2785E00
997,97	8,2250E00
998,26	-1,6144E00
998,54	3,0416E00
998,83	-5,4076E00
999,12	-4,8212E00
999,41	-1,2066E01
999,69	-1,1333E01
999,98	-2,4221E00
1000,27	-1,6894E01
1000,56	7,1212E-01
1000,84	1,8147E00
1001,13	-1,0069E01
1001,42	-1,4352E01
1001,70	2,3151E00
1001,99	0,0000E00
1002,28	-1,5244E00
1002,56	-1,0284E01
1002,85	-9,8869E00
1003,14	4,0058E-01
1003,42	-1,6475E01
1003,71	-7,2698E00
1004,00	3,7207E00
1004,28	-1,5652E01
1004,57	-9,2793E00
1004,86	-1,7165E01
1005,14	-1,1013E01
1005,43	3,8355E00
1005,72	6,4890E00
1006,00	-6,4771E00
1006,29	-2,2716E01
1006,57	-4,5699E00
1006,86	4,6530E00
1007,15	-2,1035E01
1007,43	-1,1661E01
1007,72	-9,6686E00
1008,00	-9,9135E00
1008,29	-1,2185E01
1008,57	2,3662E00
1008,86	-1,2036E01
1009,14	-8,5409E00
1009,43	-1,1756E01
1009,71	-2,5786E00
1010,00	-1,4976E01
1010,29	-5,9925E00
1010,57	-9,5697E00
1010,86	5,8920E00
1011,14	-1,3848E01
1011,43	-1,6037E01
1011,71	-1,6948E01
1011,99	-2,7090E00
1012,28	-3,1845E01
1012,56	-1,8049E01
1012,85	-1,3597E01
1013,13	-4,0533E01
1013,42	-1,6470E01
1013,70	-2,7212E01
1013,99	-1,0839E01
1014,27	-1,7950E01
1014,56	-8,2324E00
1014,84	1,3586E01
1015,12	9,2596E00
1015,41	2,6360E01
1015,69	9,3854E00
1015,98	-1,3372E00
1016,26	-1,6085E01
1016,54	9,9531E00
1016,83	-6,8738E00
1017,11	1,3850E01
1017,39	-7,8545E00
1017,68	-7,0790E00
1017,96	1,2139E01
1018,25	-1,2577E01
1018,53	7,7985E00
1018,81	-7,1002E00
1019,10	-2,4400E01
1019,38	-2,2128E01
1019,66	5,0439E00
1019,94	-8,0371E00
1020,23	-2,8593E01
1020,51	-2,0507E01
1020,79	1,5253E00
1021,08	-4,1861E01
1021,36	-4,8259E00
1021,64	-1,1867E01
1021,93	-1,2056E01
1022,21	8,2622E-01
1022,49	8,2622E-01
>>>>>End Processed Spectral Data<<<<<
