SpectraSuite Data File
++++++++++++++++++++++++++++++++++++
Date: Tue Jan 01 01:53:16 EET 1980
User: mkilpela
Dark Spectrum Present: Yes
Reference Spectrum Present: No
Number of Sampled Component Spectra: 1
Spectrometers: JAZA2845
Integration Time (usec): 4629 (JAZA2845)
Spectra Averaged: 1 (JAZA2845)
Boxcar Smoothing: 0 (JAZA2845)
Correct for Electrical Dark: No (JAZA2845)
Strobe/Lamp Enabled: No (JAZA2845)
Correct for Detector Non-linearity: No (JAZA2845)
Correct for Stray Light: No (JAZA2845)
Number of Pixels in Processed Spectrum: 2048
>>>>>Begin Processed Spectral Data<<<<<
340,21	0,0000E00
340,58	0,0000E00
340,96	0,0000E00
341,33	0,0000E00
341,70	0,0000E00
342,07	-0,0000E00
342,45	-0,0000E00
342,82	0,0000E00
343,19	-0,0000E00
343,57	-0,0000E00
343,94	-0,0000E00
344,31	-0,0000E00
344,68	-0,0000E00
345,06	-0,0000E00
345,43	-0,0000E00
345,80	-0,0000E00
346,18	-0,0000E00
346,55	-0,0000E00
346,92	-0,0000E00
347,29	-0,0000E00
347,67	-0,0000E00
348,04	-0,0000E00
348,41	-0,0000E00
348,78	0,0000E00
349,16	-0,0000E00
349,53	-0,0000E00
349,90	-0,0000E00
350,27	6,6518E-01
350,64	2,4419E-01
351,02	-2,8753E00
351,39	1,7890E00
351,76	-1,0536E00
352,13	-1,2295E00
352,51	7,1858E-01
352,88	-1,8002E01
353,25	-4,3489E-01
353,62	3,7814E00
353,99	3,4074E00
354,37	-3,4029E00
354,74	1,4526E00
355,11	-1,9878E00
355,48	0,0000E00
355,85	-3,6570E00
356,23	-1,4202E00
356,60	-1,9131E00
356,97	-5,8756E00
357,34	-1,6138E00
357,71	-8,2503E-01
358,08	-5,1718E00
358,46	-3,7703E00
358,83	-2,4099E-01
359,20	-4,3913E-01
359,57	-1,4062E00
359,94	2,7497E-01
360,31	-1,6031E00
360,69	7,9530E-01
361,06	1,5203E-01
361,43	1,2146E-01
361,80	1,2827E00
362,17	0,0000E00
362,54	-2,6237E-01
362,91	-7,1363E-01
363,29	1,3163E00
363,66	-2,6998E-01
364,03	-3,3257E00
364,40	6,2144E-01
364,77	5,7613E-01
365,14	-1,1385E00
365,51	-8,4758E00
365,88	-8,5412E-02
366,26	-1,7716E00
366,63	2,2145E-01
367,00	-2,1730E00
367,37	-9,8790E-02
367,74	-3,1187E00
368,11	-6,7329E00
368,48	-2,0684E00
368,85	7,6415E-01
369,22	1,3565E00
369,59	-1,0204E00
369,97	3,4255E00
370,34	6,7715E00
370,71	9,8820E-01
371,08	-3,7087E00
371,45	3,2924E00
371,82	9,7963E-02
372,19	7,1250E-01
372,56	-4,7306E-01
372,93	1,5546E00
373,30	-1,3153E00
373,67	-1,4836E00
374,04	1,3755E00
374,41	0,0000E00
374,78	1,2742E00
375,15	-2,6696E00
375,52	2,1105E00
375,89	7,9604E-01
376,26	-1,5164E00
376,63	-1,7594E00
377,00	-1,0418E00
377,38	-2,1577E00
377,75	3,1420E-01
378,12	-1,5846E00
378,49	-1,7523E00
378,86	-6,4704E-01
379,23	5,7661E-01
379,60	1,8282E00
379,97	3,1666E-01
380,34	0,0000E00
380,71	-2,4868E-01
381,08	-4,9774E-01
381,45	-1,9569E00
381,82	-1,2954E00
382,19	-1,4145E00
382,55	-3,2596E-01
382,92	-7,9237E-01
383,29	-4,8498E-02
383,66	-2,7193E00
384,03	-8,8606E-02
384,40	-1,0962E00
384,77	-2,7185E00
385,14	-1,6015E00
385,51	-1,9550E00
385,88	-1,8396E00
386,25	1,2927E-01
386,62	-8,1600E-01
386,99	-6,4174E-01
387,36	7,6625E-01
387,73	-6,7636E-02
388,10	-3,7212E-01
388,47	1,6427E-01
388,84	1,7226E00
389,21	-2,2634E-01
389,58	3,1500E-01
389,94	-7,5617E-01
390,31	1,1647E00
390,68	-4,3136E-01
391,05	1,3436E-01
391,42	-3,1198E-01
391,79	7,0692E-01
392,16	-2,3568E-01
392,53	1,7331E00
392,90	-9,1495E-01
393,27	-6,9807E-01
393,63	-4,1932E-01
394,00	-2,8006E-01
394,37	1,4166E00
394,74	4,8708E-02
395,11	-2,5614E00
395,48	-3,0905E-01
395,85	2,9795E00
396,22	1,4470E00
396,58	-5,9219E-01
396,95	0,0000E00
397,32	1,2792E00
397,69	5,8548E-01
398,06	1,8608E00
398,43	-3,9743E-01
398,80	-2,2888E-01
399,16	1,4040E00
399,53	1,5145E00
399,90	2,0439E00
400,27	1,2905E00
400,64	2,3978E-01
401,01	-7,9865E-01
401,37	4,3759E-01
401,74	-1,4452E00
402,11	5,1784E-01
402,48	-2,7164E-01
402,85	3,2753E-01
403,22	-1,2803E00
403,58	5,0831E-01
403,95	0,0000E00
404,32	2,5132E00
404,69	9,1218E-01
405,06	9,6628E-01
405,42	6,7221E-01
405,79	6,2153E-01
406,16	-4,5748E-01
406,53	4,2928E-01
406,89	-2,8061E-01
407,26	1,2754E00
407,63	6,0374E-01
408,00	0,0000E00
408,37	0,0000E00
408,73	8,3641E-01
409,10	7,9266E-01
409,47	-3,6198E-01
409,84	-2,3081E-01
410,20	1,2568E00
410,57	-1,9463E-01
410,94	-6,5445E-01
411,31	1,6714E-01
411,67	-9,4817E-01
412,04	-4,7072E-01
412,41	1,0001E00
412,77	5,3858E-01
413,14	8,4131E-01
413,51	1,2699E00
413,88	8,5800E-01
414,24	-3,8926E-01
414,61	3,5177E-01
414,98	1,7681E-01
415,34	6,4143E-01
415,71	4,9591E-01
416,08	-2,6455E-01
416,45	6,7536E-02
416,81	1,4549E00
417,18	7,2884E-01
417,55	3,1707E-01
417,91	3,7476E-01
418,28	1,0572E00
418,65	1,0963E00
419,01	1,8259E00
419,38	1,5626E00
419,75	2,1665E00
420,11	1,7534E00
420,48	3,1602E00
420,85	4,1646E00
421,21	4,8496E00
421,58	4,6018E00
421,95	6,2320E00
422,31	8,6240E00
422,68	8,1213E00
423,05	1,0184E01
423,41	1,2914E01
423,78	1,3110E01
424,15	1,5353E01
424,51	1,9357E01
424,88	2,0143E01
425,24	2,3698E01
425,61	2,3505E01
425,98	2,7339E01
426,34	2,7670E01
426,71	3,2486E01
427,07	3,4556E01
427,44	3,7133E01
427,81	3,8913E01
428,17	4,3021E01
428,54	4,8127E01
428,90	5,1285E01
429,27	5,1521E01
429,64	6,1949E01
430,00	5,9337E01
430,37	6,4165E01
430,73	6,5846E01
431,10	7,0554E01
431,46	7,3846E01
431,83	8,3953E01
432,20	9,0070E01
432,56	8,8915E01
432,93	1,0776E02
433,29	1,0592E02
433,66	1,1727E02
434,02	1,2817E02
434,39	1,3171E02
434,75	1,4555E02
435,12	1,6098E02
435,49	1,6955E02
435,85	1,9593E02
436,22	2,0001E02
436,58	2,1409E02
436,95	2,3421E02
437,31	2,4727E02
437,68	2,5649E02
438,04	2,8110E02
438,41	2,8924E02
438,77	3,1939E02
439,14	3,2175E02
439,50	3,2967E02
439,87	3,7624E02
440,23	3,7538E02
440,60	3,8906E02
440,96	4,2482E02
441,33	4,5497E02
441,69	4,7271E02
442,06	4,6501E02
442,42	5,0240E02
442,78	5,4556E02
443,15	5,4766E02
443,51	5,6875E02
443,88	5,9030E02
444,24	6,0434E02
444,61	5,9395E02
444,97	6,3266E02
445,34	6,7216E02
445,70	6,5812E02
446,07	6,7203E02
446,43	6,7051E02
446,79	6,7685E02
447,16	6,8580E02
447,52	7,1144E02
447,89	6,8765E02
448,25	6,9173E02
448,62	7,4549E02
448,98	7,1439E02
449,34	6,8763E02
449,71	7,0604E02
450,07	7,1647E02
450,44	6,8526E02
450,80	6,7101E02
451,16	6,8565E02
451,53	6,7520E02
451,89	6,5695E02
452,25	6,7145E02
452,62	6,5387E02
452,98	6,6981E02
453,35	6,1491E02
453,71	6,2854E02
454,07	5,9777E02
454,44	5,7464E02
454,80	5,5117E02
455,16	5,4804E02
455,53	5,2708E02
455,89	5,0108E02
456,25	4,9599E02
456,62	4,8474E02
456,98	4,6244E02
457,34	4,4341E02
457,71	4,2009E02
458,07	4,0670E02
458,43	3,7407E02
458,80	3,7472E02
459,16	3,4231E02
459,52	3,3802E02
459,89	3,3358E02
460,25	3,0716E02
460,61	2,9316E02
460,98	2,7932E02
461,34	2,7264E02
461,70	2,5174E02
462,07	2,4927E02
462,43	2,3310E02
462,79	2,2838E02
463,15	2,1668E02
463,52	2,0558E02
463,88	1,9961E02
464,24	1,8705E02
464,61	1,7110E02
464,97	1,6869E02
465,33	1,6033E02
465,69	1,5328E02
466,06	1,5243E02
466,42	1,3895E02
466,78	1,2890E02
467,14	1,2559E02
467,51	1,1716E02
467,87	1,0698E02
468,23	1,0034E02
468,59	9,1354E01
468,95	8,4461E01
469,32	7,5306E01
469,68	6,8936E01
470,04	6,3174E01
470,40	5,9379E01
470,77	5,2043E01
471,13	4,6189E01
471,49	4,2123E01
471,85	3,6392E01
472,21	3,3023E01
472,58	2,6694E01
472,94	2,4559E01
473,30	1,9469E01
473,66	1,4850E01
474,02	1,2088E01
474,39	1,0088E01
474,75	7,1547E00
475,11	4,6270E00
475,47	3,3283E00
475,83	1,9663E00
476,19	1,1904E00
476,56	7,0570E-01
476,92	1,1006E00
477,28	5,7640E-01
477,64	8,4721E-02
478,00	9,0040E-01
478,36	-2,1511E-01
478,72	6,8700E-01
479,09	1,6659E-01
479,45	5,1694E-01
479,81	-2,7753E-02
480,17	5,6284E-01
480,53	5,9366E-01
480,89	1,1830E-01
481,25	3,3782E-01
481,61	2,5153E-01
481,97	6,6062E-02
482,34	1,4512E-01
482,70	3,0360E-01
483,06	-2,1076E-01
483,42	7,8258E-02
483,78	1,8011E-01
484,14	-1,3773E-01
484,50	8,8025E-02
484,86	5,9638E-01
485,22	3,1295E-01
485,58	3,9761E-01
485,94	-4,9088E-02
486,31	4,3789E-01
486,67	1,4616E-01
487,03	1,4935E-01
487,39	6,0526E-02
487,75	-1,8028E-01
488,11	8,3591E-02
488,47	7,3468E-02
488,83	2,3008E-01
489,19	1,0938E-01
489,55	-6,0344E-02
489,91	-8,2019E-02
490,27	-8,1720E-02
490,63	8,0818E-02
490,99	-4,6181E-02
491,35	-1,6180E-01
491,71	-1,1297E-01
492,07	-3,2618E-01
492,43	-2,2361E-02
492,79	2,2318E-01
493,15	7,9701E-02
493,51	2,2670E-01
493,87	-1,5525E-01
494,23	-4,0691E-01
494,59	-3,5817E-01
494,95	2,1851E-01
495,31	-1,9504E-01
495,67	2,9250E-01
496,03	-2,5829E-01
496,39	4,2978E-02
496,75	-1,1717E-01
497,11	-3,1139E-01
497,47	2,0551E-02
497,83	-1,2464E-01
498,19	4,1241E-02
498,55	7,1647E-02
498,91	9,4416E-02
499,27	1,0256E-01
499,63	-6,1769E-02
499,98	1,0104E-02
500,34	1,9975E-02
500,70	2,8034E-01
501,06	1,2889E-01
501,42	3,8122E-01
501,78	-1,1073E-01
502,14	2,0003E-02
502,50	-7,8987E-02
502,86	-3,0273E-01
503,22	-5,8352E-02
503,58	1,4576E-01
503,94	-1,9256E-01
504,29	2,0234E-01
504,65	1,3167E-01
505,01	-7,5993E-02
505,37	-1,1412E-01
505,73	1,2331E-01
506,09	3,1978E-01
506,45	-1,8763E-02
506,81	2,2635E-01
507,16	3,7810E-02
507,52	1,2342E-01
507,88	-2,4577E-01
508,24	3,7171E-01
508,60	5,8331E-01
508,96	-4,6762E-02
509,32	1,7024E-01
509,67	-1,3189E-01
510,03	-9,3573E-02
510,39	-3,1888E-01
510,75	-9,4693E-02
511,11	-5,6197E-02
511,47	1,3138E-01
511,82	-2,8907E-01
512,18	6,5368E-02
512,54	4,6589E-02
512,90	1,6594E-01
513,26	2,6764E-01
513,61	-2,7831E-02
513,97	-3,7700E-01
514,33	-2,0254E-01
514,69	9,2624E-03
515,05	8,4273E-02
515,40	1,1191E-01
515,76	-2,7779E-02
516,12	1,8805E-01
516,48	-3,2627E-01
516,83	1,5100E-01
517,19	-3,2029E-01
517,55	-1,8806E-02
517,91	-2,9036E-01
518,26	-1,0244E-01
518,62	-7,5571E-02
518,98	-9,3699E-02
519,34	2,8268E-02
519,69	1,4083E-01
520,05	-5,5543E-02
520,41	1,4082E-01
520,77	-4,6208E-02
521,12	-3,1951E-01
521,48	-3,1843E-01
521,84	-8,3741E-02
522,19	-1,8413E-01
522,55	-2,6516E-01
522,91	-8,2798E-02
523,27	5,5664E-02
523,62	-9,3001E-03
523,98	1,6907E-01
524,34	-9,2093E-02
524,69	-1,0392E-01
525,05	2,8341E-02
525,41	2,7203E-01
525,76	-9,3235E-03
526,12	1,8195E-02
526,48	-8,3792E-02
526,83	-2,0927E-01
527,19	-3,0272E-01
527,55	-2,0426E-01
527,90	-2,8596E-01
528,26	1,1930E-01
528,62	1,5772E-01
528,97	-1,7390E-01
529,33	-3,1346E-01
529,69	-2,9375E-01
530,04	-3,6437E-01
530,40	7,2974E-02
530,76	7,2707E-02
531,11	-1,6530E-01
531,47	-1,8115E-02
531,82	2,7717E-01
532,18	4,5396E-02
532,54	0,0000E00
532,89	-2,3492E-01
533,25	1,5213E-01
533,60	-6,3936E-02
533,96	-2,1840E-01
534,32	-1,8114E-01
534,67	-4,4594E-02
535,03	2,7189E-02
535,38	0,0000E00
535,74	-1,4465E-01
536,10	7,9798E-02
536,45	-1,7649E-02
536,81	-1,6987E-01
537,16	1,1616E-01
537,52	1,9002E-01
537,87	1,8008E-01
538,23	-6,2040E-02
538,58	8,7045E-02
538,94	-4,4481E-01
539,30	1,1407E-01
539,65	-1,5690E-01
540,01	-8,8044E-03
540,36	-7,0360E-02
540,72	-7,8093E-02
541,07	-1,8196E-01
541,43	-1,4571E-01
541,78	2,9326E-01
542,14	-1,2007E-01
542,49	1,0354E-01
542,85	5,2051E-02
543,20	0,0000E00
543,56	-2,1612E-01
543,91	-1,0364E-01
544,27	2,5655E-02
544,62	-1,9642E-01
544,98	-5,0630E-01
545,33	-5,0335E-02
545,69	-1,0954E-01
546,04	-9,2913E-02
546,40	-3,5439E-01
546,75	-2,2034E-01
547,10	-3,1324E-01
547,46	-1,0101E-01
547,81	6,7831E-02
548,17	-4,5536E-01
548,52	3,3709E-02
548,88	1,6793E-02
549,23	-1,0010E-01
549,59	1,6702E-01
549,94	3,5523E-01
550,29	2,0978E-01
550,65	2,6970E-01
551,00	-4,1620E-01
551,36	-1,5684E-01
551,71	-5,0083E-01
552,06	-9,1257E-02
552,42	-5,4930E-01
552,77	-1,4187E-01
553,13	-1,6474E-01
553,48	0,0000E00
553,83	-1,2484E-01
554,19	-1,6675E-01
554,54	-3,6364E-01
554,90	-1,5720E-01
555,25	-2,0847E-01
555,60	1,6535E-02
555,96	-1,6680E-02
556,31	-5,7733E-02
556,66	-5,8418E-02
557,02	5,8169E-02
557,37	-8,3021E-02
557,72	1,4258E-01
558,08	6,6419E-02
558,43	-1,4960E-01
558,79	-8,4445E-03
559,14	1,4187E-01
559,49	-1,3359E-01
559,85	-3,3633E-02
560,20	-4,2129E-02
560,55	1,3457E-01
560,90	-1,0129E-01
561,26	7,5639E-02
561,61	-2,7678E-01
561,96	9,2542E-02
562,32	-1,4436E-01
562,67	-2,1342E-01
563,02	-2,5545E-02
563,38	-8,5071E-02
563,73	-1,5403E-01
564,08	-1,0279E-01
564,43	-2,4050E-01
564,79	-2,3132E-01
565,14	1,8064E-01
565,49	1,8083E-01
565,84	6,9133E-02
566,20	9,5590E-02
566,55	-2,3477E-01
566,90	6,9795E-02
567,25	1,7511E-01
567,61	3,5103E-02
567,96	2,6446E-02
568,31	-7,0140E-02
568,66	-1,1318E-01
569,02	2,0191E-01
569,37	-3,7307E-01
569,72	-2,0354E-01
570,07	-8,8267E-02
570,42	-2,6649E-02
570,78	-1,7923E-01
571,13	-9,7946E-02
571,48	-6,2516E-02
571,83	-2,3467E-01
572,18	1,7057E-01
572,54	-1,3364E-01
572,89	-1,8303E-01
573,24	-7,1490E-02
573,59	-1,8023E-02
573,94	-1,5158E-01
574,30	2,4263E-01
574,65	-1,4289E-01
575,00	-3,0674E-01
575,35	-1,5272E-01
575,70	-1,3530E-01
576,05	-2,0644E-01
576,40	-9,0400E-03
576,76	-2,1602E-01
577,11	4,5070E-02
577,46	-1,7216E-01
577,81	-2,5152E-01
578,16	-3,0910E-01
578,51	1,7923E-02
578,86	-2,4143E-01
579,21	-9,9960E-02
579,57	0,0000E00
579,92	-8,1449E-02
580,27	-1,4586E-01
580,62	0,0000E00
580,97	-6,4532E-01
581,32	-2,1030E-01
581,67	-7,3130E-02
582,02	-2,3556E-01
582,37	6,3563E-02
582,72	-1,3676E-01
583,08	-9,2078E-03
583,43	-2,8299E-01
583,78	-2,0929E-01
584,13	-3,6635E-02
584,48	1,8383E-01
584,83	3,0100E-01
585,18	-1,1928E-01
585,53	-9,1480E-02
585,88	6,3741E-02
586,23	1,8249E-02
586,58	-2,8305E-01
586,93	-9,0533E-03
587,28	-1,2794E-01
587,63	-1,9109E-01
587,98	-1,6444E-01
588,33	3,0159E-01
588,68	-1,1896E-01
589,03	-6,3700E-02
589,38	4,6110E-02
589,73	0,0000E00
590,08	2,7590E-02
590,43	7,3149E-02
590,78	-2,1729E-01
591,13	-2,7620E-02
591,48	-2,0125E-01
591,83	0,0000E00
592,18	-2,2138E-01
592,53	-1,1983E-01
592,88	-4,6143E-02
593,23	1,7324E-01
593,58	-3,6486E-01
593,93	1,3695E-01
594,28	-1,6553E-01
594,63	-3,8987E-01
594,98	3,6836E-02
595,33	-1,2884E-01
595,68	-2,6612E-01
596,02	9,2594E-03
596,37	8,3022E-02
596,72	-4,0473E-01
597,07	-5,4939E-02
597,42	-7,4057E-02
597,77	-9,2374E-03
598,12	-8,3067E-02
598,47	-9,3003E-02
598,82	-1,3962E-01
599,17	1,8473E-01
599,52	-6,1598E-01
599,86	-5,2173E-01
600,21	-2,9874E-01
600,56	-2,0646E-01
600,91	-3,7628E-02
601,26	-3,3013E-01
601,61	-2,0682E-01
601,96	-3,0833E-01
602,30	-9,3922E-02
602,65	-2,0712E-01
603,00	7,6211E-02
603,35	-3,0332E-01
603,70	1,9907E-01
604,05	-1,3361E-01
604,40	-9,4862E-03
604,74	-2,5820E-01
605,09	-2,2891E-01
605,44	0,0000E00
605,79	0,0000E00
606,14	-1,4438E-01
606,48	-2,5867E-01
606,83	-1,5491E-01
607,18	-5,7273E-01
607,53	-2,1465E-01
607,88	-4,0810E-01
608,22	-2,8485E-01
608,57	-3,0141E-01
608,92	7,8217E-02
609,27	1,3832E-01
609,62	-9,8518E-02
609,96	1,0800E-01
610,31	2,7778E-01
610,66	-1,0939E-01
611,01	1,0929E-01
611,35	2,9896E-02
611,70	7,0870E-02
612,05	-1,4061E-01
612,40	2,3239E-01
612,74	-2,5351E-01
613,09	1,0137E-02
613,44	1,1134E-01
613,79	-1,1171E-01
614,13	-2,0550E-01
614,48	-2,6589E-01
614,83	-5,3920E-01
615,17	2,5769E-01
615,52	1,6360E-01
615,87	8,2378E-02
616,22	-3,6186E-01
616,56	8,3210E-02
616,91	-2,7016E-01
617,26	-2,0939E-02
617,60	-8,3059E-02
617,95	-4,0773E-01
618,30	-8,4315E-02
618,64	-4,2209E-02
618,99	-1,2601E-01
619,34	2,2089E-01
619,68	-3,8811E-01
620,03	-1,0636E-01
620,38	-5,1733E-01
620,72	-2,8555E-01
621,07	-9,6225E-02
621,42	-1,1744E-01
621,76	-2,5259E-01
622,11	-7,4943E-02
622,45	-4,7558E-01
622,80	-4,6259E-01
623,15	-4,1932E-01
623,49	-2,3806E-01
623,84	-5,2730E-01
624,18	-2,4906E-01
624,53	-2,1631E-01
624,88	-7,1961E-01
625,22	4,3961E-02
625,57	-9,8087E-02
625,91	-3,2959E-02
626,26	1,6417E-01
626,61	-4,0792E-01
626,95	-1,8709E-01
627,30	-3,3130E-02
627,64	-8,8071E-02
627,99	-3,3380E-01
628,33	1,4360E-01
628,68	-2,1279E-01
629,03	1,3293E-01
629,37	1,2256E-01
629,72	-1,5790E-01
630,06	1,6717E-01
630,41	-3,0203E-01
630,75	-4,7515E-01
631,10	-3,2435E-01
631,44	-4,5397E-01
631,79	-4,5415E-02
632,13	-3,1961E-01
632,48	-2,0340E-01
632,82	-3,3002E-01
633,17	-2,9956E-01
633,51	-1,6993E-01
633,86	-1,2509E-01
634,20	1,1491E-01
634,55	-5,7191E-02
634,89	-1,3879E-01
635,24	1,1418E-01
635,58	3,4545E-01
635,93	-1,1579E-02
636,27	-3,7976E-01
636,62	1,1528E-01
636,96	-5,7712E-02
637,30	1,9635E-01
637,65	3,4866E-02
637,99	0,0000E00
638,34	-2,3189E-01
638,68	8,1860E-02
639,03	-2,0888E-01
639,37	-2,2163E-01
639,71	-3,8479E-01
640,06	-5,8371E-02
640,40	-8,1984E-02
640,75	0,0000E00
641,09	-3,5169E-02
641,44	-2,0048E-01
641,78	1,7622E-01
642,12	-2,1284E-01
642,47	-2,2412E-01
642,81	-1,7787E-01
643,15	-1,1804E-01
643,50	1,0592E-01
643,84	-4,6095E-01
644,19	5,9825E-02
644,53	-3,5753E-02
644,87	1,6652E-01
645,22	-2,4086E-01
645,56	-2,8839E-01
645,90	1,6791E-01
646,25	-1,8056E-01
646,59	-1,0805E-01
646,93	-2,4190E-01
647,28	-7,0115E-01
647,62	-3,5068E-01
647,96	-1,2129E-01
648,31	-3,2980E-01
648,65	-3,8916E-01
648,99	3,1431E-01
649,34	-4,1577E-01
649,68	-1,4617E-01
650,02	-3,5269E-01
650,36	-2,4436E-01
650,71	-1,3407E-01
651,05	-1,1016E-01
651,39	8,6713E-02
651,74	-1,2380E-01
652,08	-4,5951E-01
652,42	3,4706E-01
652,76	-1,5048E-01
653,11	5,0213E-02
653,45	-4,0043E-01
653,79	-1,0093E-01
654,13	-1,8908E-01
654,48	-1,8926E-01
654,82	-3,9161E-01
655,16	-1,0104E-01
655,50	1,5166E-01
655,85	1,2730E-02
656,19	-3,7933E-01
656,53	-2,6902E-01
656,87	-5,1313E-02
657,21	8,9039E-02
657,56	-8,9715E-02
657,90	1,2754E-02
658,24	-1,4036E-01
658,58	-1,5357E-01
658,92	-5,4105E-01
659,27	-4,1129E-01
659,61	-1,2945E-01
659,95	1,6824E-01
660,29	-1,0344E-01
660,63	-1,4262E-01
660,97	5,0626E-01
661,32	-1,4379E-01
661,66	2,8840E-01
662,00	3,6906E-01
662,34	2,7674E-01
662,68	1,4526E-01
663,02	-2,6480E-02
663,37	-1,7292E-01
663,71	-2,0014E-01
664,05	-1,9923E-01
664,39	-8,0992E-02
664,73	2,8053E-01
665,07	1,2060E-01
665,41	-5,5327E-01
665,75	-5,1208E-01
666,09	-2,8520E-01
666,44	0,0000E00
666,78	1,3656E-01
667,12	7,1328E-01
667,46	-2,4699E-01
667,80	1,5286E-01
668,14	-1,3796E-01
668,48	-1,5051E-01
668,82	-5,3893E-01
669,16	-2,5123E-01
669,50	2,2273E-01
669,84	-6,9422E-02
670,18	3,3226E-01
670,52	3,0693E-01
670,86	-4,3403E-01
671,20	-9,9197E-02
671,54	-5,9355E-01
671,88	-8,5803E-02
672,22	-5,9953E-01
672,57	-4,2994E-02
672,91	-1,1435E-01
673,25	-5,7738E-02
673,59	7,1949E-02
673,93	-4,8143E-01
674,27	0,0000E00
674,61	4,3628E-02
674,95	-1,4466E-01
675,28	-7,9200E-01
675,62	-1,7580E-01
675,96	-1,6132E-01
676,30	-3,8434E-01
676,64	5,9435E-02
676,98	-2,0675E-01
677,32	-4,6257E-01
677,66	-1,9437E-01
678,00	1,9419E-01
678,34	-4,6166E-01
678,68	-2,5562E-01
679,02	-1,7916E-01
679,36	-1,3677E-01
679,70	6,8275E-01
680,04	-1,3749E-01
680,38	2,9042E-01
680,72	2,1382E-01
681,06	-8,5141E-01
681,39	1,3709E-01
681,73	-6,1083E-02
682,07	-6,4924E-01
682,41	-3,2589E-01
682,75	3,1107E-02
683,09	-1,0834E-01
683,43	-5,4841E-01
683,77	-4,8744E-01
684,11	-4,7288E-01
684,44	-1,5824E-02
684,78	-3,1436E-01
685,12	-3,7727E-01
685,46	-9,4834E-02
685,80	2,0604E-01
686,14	-3,3311E-01
686,48	-6,3546E-02
686,81	-1,4372E-01
687,15	8,0683E-02
687,49	-4,1624E-01
687,83	-5,7797E-01
688,17	-2,1024E-01
688,51	-1,9645E-01
688,84	-9,8832E-02
689,18	-5,2566E-01
689,52	-5,2769E-01
689,86	1,9724E-01
690,20	8,3188E-02
690,53	-3,8027E-01
690,87	1,4726E-01
691,21	-3,1442E-01
691,55	2,0083E-01
691,88	-1,8271E-01
692,22	-5,0189E-01
692,56	-2,1623E-01
692,90	-2,3517E-01
693,23	-6,3708E-01
693,57	-2,3443E-01
693,91	1,8566E-01
694,25	1,0154E-01
694,58	3,3964E-02
694,92	-8,4755E-02
695,26	1,7152E-02
695,60	1,3780E-01
695,93	2,7279E-01
696,27	2,3775E-01
696,61	-2,5717E-01
696,94	-3,6410E-01
697,28	-1,5407E-01
697,62	-5,4870E-01
697,96	-3,8087E-01
698,29	-1,7245E-02
698,63	-4,6681E-01
698,97	-6,7864E-01
699,30	1,7413E-02
699,64	-6,1367E-01
699,98	-7,3594E-01
700,31	1,0481E-01
700,65	0,0000E00
700,99	-3,6980E-01
701,32	-1,9348E-01
701,66	-1,9409E-01
702,00	-3,1826E-01
702,33	-4,5576E-01
702,67	5,3421E-02
703,00	-1,7849E-01
703,34	3,3582E-01
703,68	-3,7339E-01
704,01	8,9692E-02
704,35	-3,4105E-01
704,69	1,0703E-01
705,02	-4,3065E-01
705,36	-6,7601E-01
705,69	-2,6832E-01
706,03	-4,1215E-01
706,36	-1,9777E-01
706,70	-2,6871E-01
707,04	1,8014E-02
707,37	-1,9633E-01
707,71	-6,3576E-01
708,04	-6,6740E-01
708,38	-6,3107E-01
708,71	-1,9801E-01
709,05	2,5308E-01
709,39	-7,2601E-02
709,72	-1,6330E-01
710,06	-2,0196E-01
710,39	2,5600E-01
710,73	-7,3376E-02
711,06	0,0000E00
711,40	2,5616E-01
711,73	5,5200E-02
712,07	-8,9414E-01
712,40	7,3894E-02
712,74	1,8449E-02
713,07	7,3538E-02
713,41	-1,1116E-01
713,74	-3,9055E-01
714,08	-1,0692E00
714,41	3,7084E-02
714,75	-6,7164E-01
715,08	1,3032E-01
715,42	3,7344E-02
715,75	-3,7516E-02
716,08	-3,7379E-01
716,42	9,3262E-02
716,75	-1,3067E-01
717,09	-2,2546E-01
717,42	-5,2685E-01
717,76	-2,8285E-01
718,09	3,9475E-01
718,43	-1,5081E-01
718,76	-3,7443E-02
719,09	-1,8852E-02
719,43	-3,1996E-01
719,76	-1,7056E-01
720,10	7,6610E-02
720,43	4,3684E-01
720,76	4,7714E-01
721,10	5,6869E-02
721,43	3,8253E-02
721,76	-8,1541E-01
722,10	1,3406E-01
722,43	-9,5447E-02
722,77	-7,6997E-02
723,10	-2,8868E-01
723,43	-2,4797E-01
723,77	-1,3473E-01
724,10	-3,4588E-01
724,43	-4,3979E-01
724,77	-7,7228E-02
725,10	-4,9961E-01
725,43	5,7455E-02
725,77	1,9549E-02
726,10	3,3030E-01
726,43	1,5472E-01
726,77	-2,7355E-01
727,10	-2,9181E-01
727,43	7,9646E-01
727,77	1,9450E-02
728,10	5,8760E-02
728,43	1,1743E-01
728,76	-4,3228E-01
729,10	3,3294E-01
729,43	9,8830E-02
729,76	-5,8874E-02
730,09	4,3244E-01
730,43	-2,7718E-01
730,76	3,3731E-01
731,09	6,0013E-02
731,42	-2,7880E-01
731,76	-1,1930E-01
732,09	-2,4251E-01
732,42	2,8220E-01
732,75	-5,6753E-01
733,09	-2,0342E-02
733,42	-6,7294E-01
733,75	-7,1236E-01
734,08	-2,8586E-01
734,41	-4,9055E-01
734,75	-8,0821E-02
735,08	-2,8492E-01
735,41	-4,4837E-01
735,74	-4,8823E-01
736,07	-1,6406E-01
736,41	2,0550E-02
736,74	-6,1771E-02
737,07	-7,8221E-01
737,40	-7,1498E-01
737,73	-6,1757E-02
738,06	-5,3877E-01
738,40	-2,0792E-01
738,73	-5,0022E-01
739,06	-1,4576E-01
739,39	7,7617E-01
739,72	2,0771E-01
740,05	-3,7636E-01
740,38	-3,5811E-01
740,72	-5,5046E-01
741,05	6,3225E-02
741,38	-6,3654E-02
741,71	2,7809E-01
742,04	-2,9932E-01
742,37	4,0724E-01
742,70	-2,9901E-01
743,03	-3,4427E-01
743,36	8,6222E-02
743,69	6,4699E-02
744,02	-4,9679E-01
744,36	-5,3950E-01
744,69	-5,6568E-01
745,02	-1,9578E-01
745,35	-5,7179E-01
745,68	-8,3757E-01
746,01	-6,6090E-02
746,34	-4,3537E-01
746,67	-2,4390E-01
747,00	-5,5345E-01
747,33	-4,6570E-01
747,66	-5,1273E-01
747,99	-1,0652E00
748,32	-6,2025E-01
748,65	-1,2115E00
748,98	-8,5413E-01
749,31	-3,3680E-01
749,64	-6,7518E-02
749,97	-2,0161E-01
750,30	-6,7438E-02
750,63	-3,8920E-01
750,96	-7,9573E-01
751,29	-6,5937E-01
751,62	-3,4305E-01
751,95	-5,0613E-01
752,28	2,3060E-02
752,61	-3,4936E-01
752,94	-2,3208E-02
753,27	2,5715E-01
753,60	-5,3662E-01
753,92	0,0000E00
754,25	-7,7131E-01
754,58	-8,0198E-01
754,91	-9,2043E-01
755,24	-2,8197E-01
755,57	-4,7123E-01
755,90	4,4657E-01
756,23	0,0000E00
756,56	1,1827E-01
756,89	-5,2798E-01
757,22	-1,2256E00
757,54	-1,0375E00
757,87	-9,8938E-01
758,20	1,6856E-01
758,53	-1,9332E-01
758,86	9,7525E-01
759,19	9,7905E-02
759,52	1,9537E-01
759,84	-7,8693E-01
760,17	-5,9277E-01
760,50	9,8792E-02
760,83	-2,4460E-01
761,16	8,4157E-01
761,49	1,2559E-01
761,81	4,2274E-01
762,14	4,5743E-01
762,47	1,2676E-01
762,80	-1,1848E00
763,13	-9,8255E-01
763,45	-6,3513E-01
763,78	-7,1031E-01
764,11	-6,6214E-01
764,44	-5,1378E-01
764,77	-1,2015E00
765,09	-5,1423E-02
765,42	-2,0572E-01
765,75	-2,3366E-01
766,08	-4,1341E-01
766,40	-5,2094E-02
766,73	-4,6766E-01
767,06	-2,3670E-01
767,39	-6,6185E-01
767,71	-8,1649E-01
768,04	-5,8820E-01
768,37	-9,7844E-01
768,70	9,3317E-01
769,02	5,3109E-02
769,35	0,0000E00
769,68	2,6576E-02
770,00	-1,0665E-01
770,33	-9,6600E-01
770,66	-1,1886E00
770,99	-5,9526E-01
771,31	-1,3634E00
771,64	-1,2540E00
771,97	-8,2230E-01
772,29	-1,0742E00
772,62	-2,4707E-01
772,95	-4,9652E-01
773,27	-1,1610E00
773,60	-7,5255E-01
773,93	-2,7743E-01
774,25	-2,7714E-02
774,58	-5,5956E-01
774,90	-1,1186E00
775,23	-7,8729E-01
775,56	-7,0418E-01
775,88	1,6844E-01
776,21	-2,5492E-01
776,54	-1,1946E00
776,86	5,6805E-01
777,19	-3,1179E-01
777,51	-3,1936E-01
777,84	-3,9589E-01
778,16	-9,4212E-01
778,49	-7,8145E-01
778,82	1,7451E-01
779,14	-5,2358E-01
779,47	2,5818E-01
779,79	-1,4698E-01
780,12	-9,7171E-01
780,44	-6,4913E-01
780,77	-4,7046E-01
781,10	-6,1807E-01
781,42	-1,2057E00
781,75	8,5910E-01
782,07	-8,3465E-01
782,40	-5,4152E-01
782,72	-9,0600E-02
783,05	9,1021E-02
783,37	-4,5572E-01
783,70	-4,2397E-01
784,02	-5,7450E-01
784,35	7,5902E-01
784,67	-8,5319E-01
785,00	-2,4891E-01
785,32	1,2403E-01
785,65	1,5559E-01
785,97	1,2401E-01
786,30	-1,0421E00
786,62	-4,3057E-01
786,94	-3,1353E-01
787,27	-1,0065E00
787,59	-1,3838E00
787,92	-1,2222E00
788,24	-1,6024E00
788,57	-4,1040E-01
788,89	-7,5510E-01
789,22	-5,9841E-01
789,54	-1,0030E00
789,86	-1,8806E-01
790,19	-3,4597E-01
790,51	-3,8008E-01
790,84	-1,8823E-01
791,16	-1,2376E00
791,48	-1,7526E00
791,81	-3,1698E-01
792,13	7,7996E-01
792,45	3,4805E-01
792,78	-1,5781E00
793,10	5,6442E-01
793,43	3,1441E-02
793,75	-1,8856E-01
794,07	-4,4336E-01
794,40	-1,5282E00
794,72	-4,7277E-01
795,04	-1,6332E00
795,37	-6,5404E-01
795,69	-1,0983E00
796,01	-5,6043E-01
796,34	-8,4381E-01
796,66	-1,8789E-01
796,98	-5,5768E-01
797,30	-3,1314E-01
797,63	-1,5440E-01
797,95	-2,7475E-01
798,27	-3,0820E-01
798,60	-6,0650E-01
798,92	-9,2516E-02
799,24	-4,9214E-01
799,56	-4,0080E-01
799,89	-6,7895E-01
800,21	-1,2644E00
800,53	-1,1140E00
800,85	-3,0459E-01
801,18	5,5723E-01
801,50	-1,4357E00
801,82	6,1149E-01
802,14	-1,2934E00
802,47	0,0000E00
802,79	-1,2309E-01
803,11	6,1647E-01
803,43	-9,7940E-01
803,75	-9,2082E-01
804,08	-7,6761E-01
804,40	-2,1511E-01
804,72	3,0484E-01
805,04	-9,2063E-01
805,36	-9,6181E-01
805,69	6,1627E-02
806,01	-1,9421E00
806,33	-5,5544E-01
806,65	-1,0366E00
806,97	-2,1801E-01
807,29	-3,1191E-02
807,62	1,5510E-01
807,94	6,2148E-02
808,26	3,1276E-01
808,58	-2,5125E-01
808,90	-4,9854E-01
809,22	-5,3296E-01
809,54	1,5789E-01
809,86	-5,3055E-01
810,18	-3,4657E-01
810,51	6,2638E-01
810,83	-2,2222E-01
811,15	-4,1053E-01
811,47	-2,2139E-01
811,79	-2,2265E-01
812,11	-2,0832E00
812,43	-6,7266E-01
812,75	-7,3689E-01
813,07	-3,5123E-01
813,39	-1,9246E-01
813,71	-1,2843E00
814,03	-3,5335E-01
814,35	3,2268E-02
814,67	8,0795E-01
814,99	4,2312E-01
815,31	-9,4600E-01
815,64	-6,5074E-01
815,96	-1,0066E00
816,28	2,2810E-01
816,60	-2,3024E-01
816,92	2,9535E-01
817,24	-1,3149E-01
817,56	-4,6135E-01
817,88	2,3052E-01
818,19	-1,6496E-01
818,51	-6,3743E-01
818,83	-5,3009E-01
819,15	6,6822E-02
819,47	-9,6086E-01
819,79	-9,2896E-01
820,11	-7,0942E-01
820,43	-6,7654E-01
820,75	-3,3860E-02
821,07	-7,4576E-01
821,39	-7,7995E-01
821,71	-7,7737E-01
822,03	-4,1133E-01
822,35	-1,5023E00
822,67	-1,2062E00
822,99	5,1666E-01
823,31	-1,0328E00
823,62	4,8288E-01
823,94	8,3972E-01
824,26	-5,5744E-01
824,58	-2,7831E-01
824,90	-3,5238E-02
825,22	-3,8513E-01
825,54	-1,5561E00
825,86	-6,7015E-01
826,17	-8,4478E-01
826,49	-1,5232E00
826,81	-3,9158E-01
827,13	-1,5667E00
827,45	-9,3070E-01
827,77	-1,8640E00
828,08	8,3033E-01
828,40	-6,4555E-01
828,72	-9,6671E-01
829,04	-6,5172E-01
829,36	3,6624E-02
829,67	-2,6198E00
829,99	-1,2410E00
830,31	-2,2263E-01
830,63	-3,3395E-01
830,95	-5,5143E-01
831,26	2,6077E-01
831,58	-6,3106E-01
831,90	2,9650E-01
832,22	5,6285E-01
832,53	7,4772E-01
832,85	3,7639E-01
833,17	-7,1268E-01
833,49	-1,3327E00
833,80	-7,2233E-01
834,12	-5,7337E-01
834,44	-8,0800E-01
834,76	-2,0135E00
835,07	-1,2761E00
835,39	-1,3470E00
835,71	-1,3942E00
836,02	-3,8745E-01
836,34	7,8114E-01
836,66	-1,0929E00
836,97	-1,6348E00
837,29	3,9163E-01
837,61	-8,2766E-01
837,93	-7,0691E-01
838,24	-3,5489E-01
838,56	-5,9676E-01
838,88	-7,2201E-01
839,19	-5,9857E-01
839,51	-9,2936E-01
839,82	-1,3327E00
840,14	-8,4203E-01
840,46	-1,6410E00
840,77	-1,6611E00
841,09	-1,1816E00
841,41	-2,8368E-01
841,72	-9,3552E-01
842,04	-1,1353E00
842,35	-2,8295E-01
842,67	-3,7211E-01
842,99	-9,0836E-01
843,30	1,3327E00
843,62	-1,1289E00
843,93	-1,6233E00
844,25	1,5055E00
844,56	-4,2351E-01
844,88	-1,3605E00
845,20	-2,1345E-01
845,51	-1,9732E00
845,83	3,8679E-01
846,14	-8,9356E-01
846,46	-8,1153E-01
846,77	4,7221E-01
847,09	4,8046E-01
847,40	-4,3758E-01
847,72	-4,3738E-02
848,03	8,7180E-02
848,35	-4,3653E-02
848,66	-1,4506E00
848,98	-1,7674E00
849,29	-1,6512E00
849,61	-1,7713E-01
849,92	-2,1430E00
850,24	2,6743E-01
850,55	-2,0981E00
850,87	-2,2511E-01
851,18	5,4633E-01
851,50	1,3520E-01
851,81	9,0269E-02
852,12	-9,1910E-01
852,44	-1,9642E00
852,75	3,2319E-01
853,07	-1,3361E00
853,38	-6,8891E-01
853,70	-6,0769E-01
854,01	-1,7704E00
854,32	-5,2378E-01
854,64	2,3229E-01
854,95	1,8904E-01
855,27	-6,0996E-01
855,58	-6,0997E-01
855,89	-1,0984E00
856,21	-1,3461E00
856,52	-4,7860E-01
856,83	-2,2602E00
857,15	-1,9801E00
857,46	1,4487E-01
857,77	-1,3189E00
858,09	-1,9593E-01
858,40	3,8857E-01
858,71	-1,4726E-01
859,03	1,9805E-01
859,34	-2,4860E-01
859,65	-2,4705E-01
859,97	-1,0471E00
860,28	-5,0495E-01
860,59	-1,0144E00
860,91	1,0111E-01
861,22	-9,5362E-01
861,53	-1,6196E00
861,84	1,5281E-01
862,16	-1,5342E-01
862,47	9,7469E-01
862,78	1,1275E00
863,10	-7,2377E-01
863,41	-1,8593E00
863,72	-2,4442E00
864,03	4,7149E-01
864,35	0,0000E00
864,66	-9,9825E-01
864,97	1,1578E00
865,28	-2,2389E00
865,59	-7,5225E-01
865,91	-4,8638E-01
866,22	-1,4526E00
866,53	-4,8596E-01
866,84	0,0000E00
867,15	-2,1671E-01
867,47	3,2732E-01
867,78	9,9745E-01
868,09	-1,1635E00
868,40	-1,2276E00
868,71	-1,5977E00
869,02	-5,5846E-01
869,34	-1,6859E-01
869,65	4,4943E-01
869,96	-1,7884E00
870,27	-1,1864E00
870,58	1,1462E-01
870,89	-1,7291E-01
871,20	1,7708E00
871,52	-1,9904E00
871,83	0,0000E00
872,14	-1,4147E00
872,45	-2,4443E00
872,76	-2,3762E00
873,07	-1,5374E00
873,38	-1,3074E00
873,69	2,3827E-01
874,00	-2,5306E00
874,31	-3,4511E00
874,62	6,8000E-01
874,94	-2,3802E00
875,25	-1,5291E00
875,56	-1,2162E00
875,87	-1,3356E00
876,18	-4,3507E-01
876,49	-1,3655E00
876,80	-1,3013E00
877,11	2,4722E-01
877,42	6,9127E-01
877,73	-1,0025E00
878,04	1,8823E00
878,35	-2,2890E00
878,66	6,3378E-01
878,97	1,5298E00
879,28	8,2664E-01
879,59	-6,3309E-02
879,90	3,2203E-01
880,21	-3,1579E-01
880,52	-1,2757E00
880,83	-1,9339E00
881,14	-1,0887E00
881,45	6,4317E-02
881,76	-3,3329E00
882,07	-2,4243E00
882,37	1,1009E00
882,68	-8,9637E-01
882,99	-1,5329E00
883,30	1,9093E-01
883,61	1,4726E00
883,92	2,5574E00
884,23	-5,1812E-01
884,54	2,5392E-01
884,85	-6,5248E-02
885,16	-3,2268E-01
885,47	-5,8203E-01
885,77	-2,6064E-01
886,08	9,1304E-01
886,39	-5,7949E-01
886,70	6,4959E-02
887,01	-1,6076E00
887,32	-1,1466E00
887,63	-1,1615E00
887,93	-1,5177E00
888,24	-6,4691E-02
888,55	-2,4884E00
888,86	-1,8491E00
889,17	3,8535E-01
889,47	-2,3732E00
889,78	-1,8620E00
890,09	3,8038E-01
890,40	-7,1315E-01
890,71	1,2238E00
891,01	0,0000E00
891,32	0,0000E00
891,63	-1,0343E00
891,94	-1,5277E00
892,25	-1,0207E00
892,55	6,3813E-02
892,86	-1,4712E00
893,17	3,1825E-01
893,48	2,5581E-01
893,78	-8,2989E-01
894,09	-5,7830E-01
894,40	1,3476E00
894,70	6,4723E-02
895,01	-1,5912E00
895,32	2,5586E-01
895,63	-1,8027E00
895,93	-6,4379E-01
896,24	-1,1580E00
896,55	-2,4532E00
896,85	-1,8815E00
897,16	-1,9231E00
897,47	-1,0918E00
897,77	-2,8260E00
898,08	-6,4843E-02
898,39	-1,9650E00
898,69	-1,0927E00
899,00	-7,1176E-01
899,31	6,3521E-02
899,61	-4,5597E-01
899,92	1,2918E00
900,23	1,3729E00
900,53	1,3128E00
900,84	1,9407E-01
901,14	4,5590E-01
901,45	-1,7497E00
901,76	-1,9491E-01
902,06	-1,8471E00
902,37	-1,8403E00
902,67	1,0549E00
902,98	-1,2081E00
903,29	1,9612E-01
903,59	-2,6151E-01
903,90	4,6864E-01
904,20	-2,2796E00
904,51	-3,4728E00
904,81	-6,6789E-02
905,12	-6,7731E-01
905,42	-1,9722E00
905,73	-2,0250E-01
906,03	-2,4937E00
906,34	-4,1057E-01
906,64	-8,8799E-01
906,95	2,7034E-01
907,25	8,2111E-01
907,56	1,0205E00
907,86	1,1187E00
908,17	-2,0721E-01
908,47	-3,0705E00
908,78	4,2202E-01
909,08	0,0000E00
909,39	-5,7015E-01
909,69	9,2387E-01
910,00	-1,5583E00
910,30	-1,7208E00
910,61	-9,4614E-01
910,91	-7,1690E-02
911,21	-1,3176E00
911,52	-5,8595E-01
911,82	-4,7361E00
912,13	-2,5387E00
912,43	-1,0132E00
912,74	-1,7736E00
913,04	1,4809E-01
913,34	-1,3279E00
913,65	-2,4174E00
913,95	-3,0222E00
914,25	-4,6201E00
914,56	-2,1197E00
914,86	-2,8981E00
915,17	7,6558E-02
915,47	-7,7999E-01
915,77	-1,2313E00
916,08	1,5550E-01
916,38	1,1066E00
916,68	-2,4617E00
916,99	8,6785E-01
917,29	1,1769E00
917,59	-1,6452E00
917,90	-1,5961E-01
918,20	-8,8385E-01
918,50	-2,5059E00
918,80	-2,2757E00
919,11	-3,2362E00
919,41	-3,2875E-01
919,71	9,9175E-01
920,02	2,4420E-01
920,32	-1,4613E00
920,62	-2,6099E00
920,92	-8,3733E-01
921,23	4,2448E-01
921,53	-2,7278E00
921,83	1,7003E00
922,13	4,2215E-01
922,44	6,8351E-01
922,74	-2,6108E-01
923,04	-7,7418E-01
923,34	-2,3507E00
923,64	-1,9271E00
923,95	1,7294E00
924,25	-4,4229E-01
924,55	-7,2042E-01
924,85	-5,3834E-01
925,15	-2,6071E00
925,46	-7,0802E-01
925,76	1,7914E-01
926,06	-1,8043E-01
926,36	-3,0249E00
926,66	-2,4027E00
926,96	-4,4209E00
927,26	2,0389E00
927,57	0,0000E00
927,87	-1,1262E00
928,17	-1,0320E00
928,47	-3,8513E00
928,77	-1,9013E00
929,07	-5,8185E-01
929,37	-8,6506E-01
929,67	4,8277E-01
929,98	2,9339E-01
930,28	-1,0575E00
930,58	-4,8122E00
930,88	-2,3593E00
931,18	-2,4684E00
931,48	-3,1708E00
931,78	-1,6172E00
932,08	2,6141E00
932,38	6,0766E-01
932,68	-1,5345E00
932,98	-6,1933E-01
933,28	-5,0051E00
933,58	-5,0236E00
933,88	-4,3332E00
934,18	0,0000E00
934,48	-2,9882E00
934,78	-2,3542E00
935,08	-1,4804E00
935,38	-1,6940E00
935,68	-2,8095E00
935,98	-3,5906E00
936,28	-2,7330E00
936,58	-1,7659E00
936,88	-5,5664E-01
937,18	-4,3995E-01
937,48	-2,0804E00
937,78	3,3609E-01
938,08	-3,3998E-01
938,38	-3,3812E00
938,68	-2,7076E00
938,98	2,2943E-01
939,28	-1,3877E00
939,57	-1,0580E00
939,87	-1,1788E00
940,17	-1,9844E00
940,47	-5,8137E00
940,77	-4,7322E-01
941,07	-9,5875E-01
941,37	6,1118E-01
941,67	-3,6608E-01
941,97	-3,0866E00
942,26	9,8385E-01
942,56	-2,0847E00
942,86	-1,8925E00
943,16	-1,8514E00
943,46	-2,8854E00
943,76	-6,3154E00
944,06	-1,5275E00
944,35	2,5165E-01
944,65	-9,0063E-01
944,95	1,6763E00
945,25	-3,8922E-01
945,55	3,2450E00
945,84	-2,2208E00
946,14	1,1941E00
946,44	9,4023E-01
946,74	-5,2989E-01
947,03	2,3025E00
947,33	-2,7100E-01
947,63	-2,0533E00
947,93	-3,8439E00
948,23	-2,3861E00
948,52	-4,3165E00
948,82	3,0766E00
949,12	0,0000E00
949,41	-3,2901E00
949,71	-7,1492E-01
950,01	-8,7605E00
950,31	-3,0470E00
950,60	-4,9965E00
950,90	-6,5092E00
951,20	8,9990E-01
951,49	-9,0026E-01
951,79	-7,4205E-01
952,09	-7,4794E00
952,38	-1,3768E00
952,68	3,9033E00
952,98	0,0000E00
953,27	-2,0506E00
953,57	-1,2685E00
953,87	-5,3621E00
954,16	6,2324E-01
954,46	-3,5349E00
954,76	-1,8756E00
955,05	-4,1773E00
955,35	-4,7740E00
955,64	-1,3151E00
955,94	-2,1180E00
956,24	-7,0763E00
956,53	-3,9098E00
956,83	-8,2869E-01
957,12	-3,2156E00
957,42	6,9024E-01
957,72	-3,7381E00
958,01	-4,4865E00
958,31	-3,8637E00
958,60	-4,0235E00
958,90	-8,8929E-01
959,19	-5,3365E00
959,49	-8,6201E00
959,78	7,0592E-01
960,08	-7,2751E-01
960,37	4,9974E00
960,67	-7,3106E-01
960,96	-6,8285E00
961,26	-3,6731E00
961,55	-6,0148E00
961,85	3,7607E-01
962,14	-1,5011E00
962,44	-2,1221E00
962,73	9,5563E-01
963,03	-3,4552E00
963,32	-4,8104E00
963,62	9,8628E-01
963,91	5,9112E-01
964,21	4,2052E00
964,50	-6,5420E00
964,80	-4,4380E00
965,09	4,3023E00
965,38	-6,1464E00
965,68	0,0000E00
965,97	-8,0924E-01
966,27	-2,0970E-01
966,56	-3,5539E00
966,85	2,9373E00
967,15	-1,0709E00
967,44	5,0674E00
967,74	-3,0218E00
968,03	1,0944E00
968,32	-2,8660E00
968,62	8,7765E-01
968,91	-6,4540E00
969,20	-8,3979E00
969,50	-9,0309E-01
969,79	-8,3983E00
970,08	-9,1528E-01
970,38	2,2442E-01
970,67	-3,4959E00
970,96	-3,3338E00
971,26	-1,6653E00
971,55	2,5847E00
971,84	-6,0585E00
972,13	-2,6473E00
972,43	7,3993E-01
972,72	-1,7591E00
973,01	2,6531E00
973,31	6,4455E00
973,60	4,9940E-01
973,89	-7,1283E00
974,18	-3,3661E00
974,48	-6,0033E00
974,77	-6,8802E00
975,06	-6,8557E00
975,35	-5,7490E00
975,64	-7,6414E00
975,94	-3,1811E00
976,23	-1,0941E01
976,52	-1,3466E01
976,81	-6,9164E00
977,10	-2,5002E00
977,40	-1,4093E01
977,69	-7,0392E00
977,98	4,8068E00
978,27	-4,8860E00
978,56	-9,7457E00
978,86	-5,7127E-01
979,15	-5,7849E00
979,44	-8,4644E00
979,73	-3,0254E-01
980,02	-8,9565E00
980,31	-2,7399E00
980,60	-3,6257E00
980,89	-6,0678E00
981,19	-7,9557E00
981,48	1,8853E00
981,77	-5,8974E00
982,06	-9,5421E-01
982,35	-7,1704E00
982,64	9,7383E-01
982,93	-1,3005E00
983,22	-4,9522E00
983,51	-2,6835E00
983,80	-1,3689E00
984,09	-4,6016E00
984,38	1,0108E00
984,67	-5,5330E00
984,96	-4,7197E00
985,25	5,2350E00
985,55	-6,5116E00
985,84	-1,6953E01
986,13	5,0339E00
986,42	-8,2807E00
986,71	-1,3473E01
987,00	-2,5565E00
987,29	1,8374E00
987,58	-1,8417E00
987,86	-1,5161E00
988,15	-5,0316E00
988,44	0,0000E00
988,73	-2,0998E01
989,02	3,9133E-01
989,31	-1,6446E01
989,60	7,4886E00
989,89	4,2902E00
990,18	-1,6096E01
990,47	-4,0634E00
990,76	9,3983E00
991,05	-7,3937E00
991,34	-8,4657E00
991,63	-1,4687E01
991,92	-6,7564E00
992,20	-1,6564E01
992,49	-5,1159E00
992,78	-7,0047E00
993,07	-2,0275E01
993,36	-9,1027E00
993,65	-3,6339E00
993,94	3,6161E00
994,22	-4,5227E-01
994,51	-1,2666E01
994,80	5,2101E00
995,09	-1,9084E01
995,38	-2,1434E01
995,67	-2,4315E00
995,95	9,2453E00
996,24	-1,2722E01
996,53	-6,9238E00
996,82	-2,9501E00
997,11	4,5720E00
997,39	-1,2298E01
997,68	5,3064E-01
997,97	-2,6366E01
998,26	-1,9589E01
998,54	-1,4240E01
998,83	-2,6791E01
999,12	3,7474E00
999,41	-1,0362E01
999,69	-1,1255E01
999,98	-9,9894E00
1000,27	5,0363E00
1000,56	-1,3791E01
1000,84	7,9668E00
1001,13	2,3839E00
1001,42	-2,3327E00
1001,70	-1,0710E01
1001,99	-1,3314E01
1002,28	-1,9000E01
1002,56	-1,6921E01
1002,85	4,3387E00
1003,14	-4,9811E00
1003,42	-1,2524E01
1003,71	-1,6917E01
1004,00	-1,3507E01
1004,28	1,2669E00
1004,57	6,6429E00
1004,86	-1,4830E01
1005,14	6,5115E-01
1005,43	8,4583E00
1005,72	-2,6225E01
1006,00	2,7690E00
1006,29	-3,0107E01
1006,57	-1,3259E01
1006,86	-4,3282E01
1007,15	1,4499E00
1007,43	-3,0424E01
1007,72	-2,8956E01
1008,00	9,1490E00
1008,29	-2,5066E01
1008,57	1,4538E00
1008,86	-1,0053E01
1009,14	9,2071E00
1009,43	-2,3046E00
1009,71	1,1239E01
1010,00	8,0144E00
1010,29	-1,6334E00
1010,57	1,2728E01
1010,86	-1,7165E01
1011,14	-2,1556E01
1011,43	-1,3184E01
1011,71	1,2875E01
1011,99	-4,3994E00
1012,28	-1,0666E01
1012,56	-8,9143E00
1012,85	-1,5410E01
1013,13	-3,5157E00
1013,42	-5,2674E01
1013,70	-1,6490E01
1013,99	-8,5529E00
1014,27	-1,2653E01
1014,56	-5,1175E01
1014,84	-2,3302E01
1015,12	-3,1386E01
1015,41	-9,0798E00
1015,69	-1,1246E01
1015,98	9,6697E00
1016,26	-1,0614E00
1016,54	-1,3459E01
1016,83	-3,3599E00
1017,11	-3,1485E01
1017,39	2,4227E01
1017,68	-1,1805E01
1017,96	-5,7208E01
1018,25	-3,2699E01
1018,53	-1,7427E01
1018,81	-1,9195E01
1019,10	-9,9405E00
1019,38	-1,4094E01
1019,66	-5,3436E01
1019,94	-5,3976E01
1020,23	-1,9450E01
1020,51	-1,9655E01
1020,79	3,6387E00
1021,08	0,0000E00
1021,36	-9,2140E00
1021,64	-5,3617E01
1021,93	-5,2335E00
1022,21	-3,6400E01
1022,49	-3,6400E01
>>>>>End Processed Spectral Data<<<<<
