SpectraSuite Data File
++++++++++++++++++++++++++++++++++++
Date: Tue Jan 01 01:56:54 EET 1980
User: mkilpela
Dark Spectrum Present: Yes
Reference Spectrum Present: No
Number of Sampled Component Spectra: 1
Spectrometers: JAZA2845
Integration Time (usec): 1158 (JAZA2845)
Spectra Averaged: 1 (JAZA2845)
Boxcar Smoothing: 0 (JAZA2845)
Correct for Electrical Dark: No (JAZA2845)
Strobe/Lamp Enabled: No (JAZA2845)
Correct for Detector Non-linearity: No (JAZA2845)
Correct for Stray Light: No (JAZA2845)
Number of Pixels in Processed Spectrum: 2048
>>>>>Begin Processed Spectral Data<<<<<
340,21	-0,0000E00
340,58	-0,0000E00
340,96	-0,0000E00
341,33	0,0000E00
341,70	0,0000E00
342,07	-0,0000E00
342,45	-0,0000E00
342,82	0,0000E00
343,19	-0,0000E00
343,57	0,0000E00
343,94	0,0000E00
344,31	-0,0000E00
344,68	-0,0000E00
345,06	0,0000E00
345,43	-0,0000E00
345,80	-0,0000E00
346,18	0,0000E00
346,55	-0,0000E00
346,92	-0,0000E00
347,29	-0,0000E00
347,67	0,0000E00
348,04	-0,0000E00
348,41	0,0000E00
348,78	0,0000E00
349,16	0,0000E00
349,53	-0,0000E00
349,90	-0,0000E00
350,27	8,8633E-01
350,64	6,4425E00
351,02	3,2839E00
351,39	1,7668E01
351,76	-8,7741E00
352,13	-4,4679E-01
352,51	1,5118E00
352,88	-1,1308E02
353,25	-2,6076E00
353,62	-4,5348E00
353,99	-4,9530E00
354,37	1,5416E01
354,74	4,6454E00
355,11	-9,4177E00
355,48	1,4055E01
355,85	3,1325E00
356,23	9,3669E00
356,60	8,9221E00
356,97	2,3885E00
357,34	-5,2415E00
357,71	1,1072E01
358,08	2,0674E00
358,46	1,2560E01
358,83	1,1560E00
359,20	-7,6067E00
359,57	7,6652E00
359,94	-6,2286E00
360,31	5,8740E00
360,69	-7,6829E00
361,06	-7,5965E-01
361,43	-3,1558E00
361,80	-9,2686E00
362,17	-2,8334E00
362,54	-8,7399E00
362,91	1,4263E00
363,29	-1,1162E00
363,66	1,0792E00
364,03	1,3723E01
364,40	3,8643E00
364,77	1,1003E01
365,14	4,0155E00
365,51	3,3055E01
365,88	2,7314E00
366,26	8,0262E00
366,63	7,6721E00
367,00	1,8338E01
367,37	1,9745E00
367,74	-5,5885E00
368,11	-6,9778E00
368,48	2,2443E01
368,85	1,0182E00
369,22	4,5480E00
369,59	2,7194E00
369,97	1,6074E01
370,34	6,0904E01
370,71	1,1243E01
371,08	2,5607E01
371,45	-4,5384E00
371,82	3,1328E00
372,19	5,4590E00
372,56	-8,1043E-01
372,93	1,0967E00
373,30	-2,9209E-01
373,67	-1,1861E00
374,04	-8,6816E-01
374,41	1,3013E00
374,78	2,5468E00
375,15	1,5245E00
375,52	-1,5065E00
375,89	1,5910E00
376,26	-4,9597E00
376,63	-5,3585E00
377,00	8,3287E-01
377,38	-6,3111E-01
377,75	2,2608E00
378,12	3,0004E00
378,49	4,1508E00
378,86	2,1162E00
379,23	2,0488E00
379,60	3,6541E00
379,97	1,0886E01
380,34	2,0254E00
380,71	-2,1869E00
381,08	-2,4318E00
381,45	1,2013E01
381,82	9,6659E00
382,19	5,9683E00
382,55	5,2120E00
382,92	1,0558E00
383,29	1,1632E00
383,66	-3,3214E00
384,03	3,5420E00
384,40	4,9536E00
384,77	5,4335E00
385,14	-2,1340E00
385,51	-3,9075E00
385,88	3,1516E00
386,25	1,2919E00
386,62	2,0387E00
386,99	2,1377E-01
387,36	5,5134E00
387,73	6,7593E00
388,10	4,9583E-01
388,47	-3,9398E00
388,84	-4,3038E-01
389,21	-2,3524E00
389,58	-8,2747E00
389,94	2,2167E00
390,31	-1,9399E00
390,68	1,7243E00
391,05	1,6113E00
391,42	1,6034E00
391,79	5,2170E00
392,16	6,2808E00
392,53	9,1154E-01
392,90	1,9250E00
393,27	1,5696E00
393,63	5,8667E00
394,00	5,7842E00
394,37	1,4157E00
394,74	6,4252E00
395,11	6,6867E00
395,48	1,0589E00
395,85	-1,0267E00
396,22	5,2586E00
396,58	6,1912E00
396,95	7,3091E00
397,32	1,8939E00
397,69	4,2907E00
398,06	7,8634E00
398,43	5,2956E00
398,80	3,8428E00
399,16	-1,2277E00
399,53	-1,8789E00
399,90	4,3353E00
400,27	5,3429E00
400,64	2,6838E00
401,01	2,0163E00
401,37	1,7492E00
401,74	5,3921E00
402,11	7,4175E00
402,48	3,8006E00
402,85	5,7982E00
403,22	6,4529E00
403,58	1,5239E00
403,95	3,1860E00
404,32	4,7388E00
404,69	5,6215E00
405,06	2,7360E00
405,42	9,4048E00
405,79	-1,5528E00
406,16	3,4746E00
406,53	1,8876E00
406,89	2,5639E00
407,26	1,2746E00
407,63	3,2179E-01
408,00	-1,5917E00
408,37	5,7879E00
408,73	5,3495E00
409,10	8,8720E00
409,47	-2,7332E00
409,84	-1,9990E00
410,20	-1,7943E-01
410,57	-1,5561E-01
410,94	4,0695E00
411,31	3,0066E00
411,67	6,0643E00
412,04	-2,3159E00
412,41	9,4237E00
412,77	1,5378E00
413,14	3,6555E00
413,51	-6,1533E-01
413,88	7,4312E00
414,24	5,9130E00
414,61	7,8746E00
414,98	8,4814E00
415,34	5,5555E00
415,71	-2,4072E00
416,08	9,2532E-01
416,45	2,1598E00
416,81	2,2368E00
417,18	2,6360E00
417,55	6,6189E00
417,91	5,9923E00
418,28	6,9029E00
418,65	6,4363E00
419,01	1,1593E01
419,38	1,9725E01
419,75	1,7456E01
420,11	1,9005E01
420,48	2,4586E01
420,85	3,3441E01
421,21	3,9800E01
421,58	4,5988E01
421,95	6,3951E01
422,31	5,9403E01
422,68	7,2868E01
423,05	8,0014E01
423,41	9,2443E01
423,78	1,0344E02
424,15	1,2176E02
424,51	1,4403E02
424,88	1,4681E02
425,24	1,7575E02
425,61	1,8584E02
425,98	2,2602E02
426,34	2,2534E02
426,71	2,5704E02
427,07	2,6480E02
427,44	2,9023E02
427,81	3,0072E02
428,17	3,3583E02
428,54	3,6441E02
428,90	3,9179E02
429,27	3,8015E02
429,64	4,4334E02
430,00	4,3843E02
430,37	4,7676E02
430,73	4,7645E02
431,10	5,0647E02
431,46	5,3472E02
431,83	6,0731E02
432,20	6,0740E02
432,56	6,4418E02
432,93	7,4835E02
433,29	7,2053E02
433,66	7,8945E02
434,02	8,7431E02
434,39	8,8828E02
434,75	9,6343E02
435,12	1,0421E03
435,49	1,0977E03
435,85	1,2378E03
436,22	1,2439E03
436,58	1,3184E03
436,95	1,4173E03
437,31	1,5038E03
437,68	1,5374E03
438,04	1,6876E03
438,41	1,7065E03
438,77	1,8718E03
439,14	1,8491E03
439,50	1,8821E03
439,87	2,1231E03
440,23	2,0803E03
440,60	2,1295E03
440,96	2,2811E03
441,33	2,4060E03
441,69	2,4558E03
442,06	2,3855E03
442,42	2,5357E03
442,78	2,6782E03
443,15	2,6919E03
443,51	2,7540E03
443,88	2,8090E03
444,24	2,8099E03
444,61	2,7578E03
444,97	2,8710E03
445,34	3,0305E03
445,70	2,9170E03
446,07	2,9099E03
446,43	2,8723E03
446,79	2,8840E03
447,16	2,8800E03
447,52	2,9404E03
447,89	2,8042E03
448,25	2,8139E03
448,62	3,0044E03
448,98	2,8585E03
449,34	2,7192E03
449,71	2,7769E03
450,07	2,7877E03
450,44	2,6526E03
450,80	2,5741E03
451,16	2,6103E03
451,53	2,5596E03
451,89	2,4552E03
452,25	2,5017E03
452,62	2,3956E03
452,98	2,4274E03
453,35	2,2458E03
453,71	2,2782E03
454,07	2,1709E03
454,44	2,1074E03
454,80	2,0087E03
455,16	1,9927E03
455,53	1,9019E03
455,89	1,8465E03
456,25	1,8081E03
456,62	1,7528E03
456,98	1,6921E03
457,34	1,6365E03
457,71	1,5447E03
458,07	1,4836E03
458,43	1,3904E03
458,80	1,3907E03
459,16	1,2680E03
459,52	1,2441E03
459,89	1,2257E03
460,25	1,1425E03
460,61	1,1199E03
460,98	1,0351E03
461,34	1,0032E03
461,70	9,6200E02
462,07	9,2801E02
462,43	8,8338E02
462,79	8,5984E02
463,15	8,1966E02
463,52	7,7230E02
463,88	7,4773E02
464,24	7,0263E02
464,61	6,3766E02
464,97	6,3963E02
465,33	6,0601E02
465,69	5,6779E02
466,06	5,7518E02
466,42	5,1319E02
466,78	4,8544E02
467,14	4,6101E02
467,51	4,3118E02
467,87	3,9575E02
468,23	3,6766E02
468,59	3,3217E02
468,95	3,1075E02
469,32	2,8856E02
469,68	2,5185E02
470,04	2,3634E02
470,40	2,1674E02
470,77	1,9264E02
471,13	1,7688E02
471,49	1,4999E02
471,85	1,3719E02
472,21	1,2095E02
472,58	1,0162E02
472,94	8,8494E01
473,30	7,5053E01
473,66	5,8865E01
474,02	4,8579E01
474,39	3,7685E01
474,75	2,8662E01
475,11	1,8681E01
475,47	1,3726E01
475,83	8,8350E00
476,19	8,4329E00
476,56	6,3022E00
476,92	4,3997E00
477,28	2,3632E00
477,64	2,3707E00
478,00	2,0567E00
478,36	1,8917E00
478,72	3,2612E00
479,09	3,3852E00
479,45	3,9095E-01
479,81	3,1618E00
480,17	4,3901E-01
480,53	1,9416E00
480,89	3,6779E-01
481,25	3,1329E00
481,61	1,5876E00
481,97	2,7464E00
482,34	5,2738E-01
482,70	1,7941E00
483,06	2,0009E00
483,42	2,3462E00
483,78	4,1142E-01
484,14	3,5037E-01
484,50	1,9102E00
484,86	3,2283E00
485,22	1,9015E00
485,58	1,0431E00
485,94	1,9622E00
486,31	1,1503E00
486,67	1,6067E00
487,03	5,9701E-01
487,39	-7,2584E-01
487,75	1,9218E00
488,11	8,1150E-01
488,47	9,7893E-02
488,83	2,1783E00
489,19	1,6032E00
489,55	1,4473E00
489,91	7,0257E-01
490,27	-2,8000E-01
490,63	1,8461E-01
490,99	1,4768E00
491,35	-1,8479E-01
491,71	1,6257E00
492,07	8,9922E-01
492,43	1,3408E00
492,79	4,4607E-01
493,15	7,2822E-01
493,51	2,6280E00
493,87	4,4329E-01
494,23	1,0111E00
494,59	1,4318E00
494,95	-4,8041E-01
495,31	4,3313E-01
495,67	3,0313E-01
496,03	1,7208E00
496,39	-2,5770E-01
496,75	-1,8736E00
497,11	-6,6387E-01
497,47	8,6260E-01
497,83	8,3043E-02
498,19	4,1214E-02
498,55	-1,0229E00
498,91	-7,5484E-01
499,27	3,2798E-01
499,63	8,2305E-02
499,98	4,0392E-02
500,34	-3,9924E-02
500,70	5,6031E-01
501,06	1,1890E00
501,42	-6,8175E-01
501,78	1,8107E00
502,14	9,9950E-01
502,50	5,9202E-01
502,86	8,9785E-01
503,22	1,9438E-01
503,58	-1,3207E00
503,94	1,5780E00
504,29	-6,5476E-01
504,65	-7,5189E-02
505,01	-3,0378E-01
505,37	5,3222E-01
505,73	1,7820E00
506,09	6,7674E-01
506,45	7,8754E-01
506,81	1,9227E00
507,16	1,0580E00
507,52	-1,2144E00
507,88	4,5344E-01
508,24	-2,6669E-01
508,60	6,7696E-01
508,96	3,3647E-01
509,32	2,2683E-01
509,67	7,5316E-01
510,03	-3,7405E-01
510,39	1,4621E00
510,75	-4,1638E-01
511,11	-4,8672E-01
511,47	1,5756E00
511,82	9,3187E-01
512,18	-1,4932E-01
512,54	3,3522E-01
512,90	7,3705E-02
513,26	2,2135E-01
513,61	-6,6751E-01
513,97	-1,5805E00
514,33	-9,2003E-01
514,69	1,8513E-01
515,05	8,6090E-01
515,40	8,5744E-01
515,76	4,0716E-01
516,12	-7,5172E-02
516,48	1,3415E00
516,83	7,1678E-01
517,19	-1,2803E00
517,55	-7,5174E-02
517,91	2,6209E-01
518,26	3,7228E-01
518,62	7,5522E-01
518,98	1,4233E00
519,34	4,8967E-01
519,69	8,2565E-01
520,05	1,8502E00
520,41	5,2537E-01
520,77	-5,9108E-01
521,12	1,2021E00
521,48	4,4925E-01
521,84	2,9755E-01
522,19	-6,2563E-01
522,55	6,9447E-01
522,91	-3,6775E-01
523,27	-5,1919E-01
523,62	-5,5764E-01
523,98	-6,7582E-01
524,34	-1,3253E00
524,69	-7,9306E-01
525,05	-2,6435E-01
525,41	-1,4999E-01
525,76	-7,4540E-02
526,12	3,6365E-01
526,48	2,2330E-01
526,83	4,7283E-01
527,19	1,4668E-01
527,55	4,4536E-01
527,90	-5,1624E-01
528,26	2,9348E-01
528,62	-3,7086E-01
528,97	-3,6587E-01
529,33	8,8449E-01
529,69	-9,1737E-01
530,04	-1,0924E-01
530,40	-1,0939E-01
530,76	2,9064E-01
531,11	4,7722E-01
531,47	-3,9828E-01
531,82	9,2925E-01
532,18	-1,8147E-01
532,54	2,9410E-01
532,89	1,8059E-01
533,25	-1,4309E-01
533,60	-1,8256E-01
533,96	1,2004E00
534,32	7,2410E-01
534,67	1,5687E00
535,03	3,2606E-01
535,38	8,3263E-01
535,74	1,2649E00
536,10	2,1266E-01
536,45	-1,0583E00
536,81	-4,2888E-01
537,16	-6,0719E-01
537,52	3,9788E-01
537,87	1,3677E00
538,23	-2,1257E-01
538,58	1,1830E00
538,94	7,4679E-01
539,30	4,5597E-01
539,65	3,4845E-01
540,01	3,1675E-01
540,36	7,0314E-01
540,72	6,5902E-01
541,07	1,1776E00
541,43	-2,7410E-01
541,78	-4,4822E-01
542,14	6,8566E-01
542,49	1,4141E00
542,85	1,3871E-01
543,20	-3,4478E-02
543,56	8,2936E-01
543,91	1,7262E-01
544,27	3,4184E-02
544,62	1,0241E-01
544,98	-1,3035E00
545,33	-3,3535E-01
545,69	3,7051E-01
546,04	3,3765E-01
546,40	-6,7459E-02
546,75	7,1142E-01
547,10	5,7531E-01
547,46	0,0000E00
547,81	-1,3557E-01
548,17	2,3596E-01
548,52	-3,0318E-01
548,88	-3,6921E-01
549,23	-1,0337E00
549,59	-1,6691E-01
549,94	3,6325E-01
550,29	-4,6959E-01
550,65	5,8806E-01
551,00	-1,1646E00
551,36	-1,6498E-01
551,71	-8,8615E-01
552,06	-6,6326E-02
552,42	-6,6539E-01
552,77	8,3400E-01
553,13	4,6098E-01
553,48	3,3162E-01
553,83	6,9867E-01
554,19	-2,3330E-01
554,54	7,2681E-01
554,90	5,2919E-01
555,25	5,6667E-01
555,60	4,6267E-01
555,96	7,3343E-01
556,31	3,6266E-01
556,66	1,0342E00
557,02	4,3183E-01
557,37	1,0620E00
557,72	-5,0288E-01
558,08	-5,9739E-01
558,43	9,9666E-01
558,79	1,4178E00
559,14	-1,3344E-01
559,49	9,6788E-01
559,85	9,0750E-01
560,20	3,3682E-02
560,55	1,9164E00
560,90	-3,0368E-01
561,26	-1,3438E-01
561,61	6,7055E-02
561,96	1,3452E00
562,32	1,0184E-01
562,67	-8,1901E-01
563,02	3,4037E-01
563,38	0,0000E00
563,73	-6,8413E-01
564,08	-9,9295E-01
564,43	4,1202E-01
564,79	-1,7124E-01
565,14	6,8770E-02
565,49	1,3769E-01
565,84	6,5634E-01
566,20	1,2158E00
566,55	7,2992E-01
566,90	-2,7900E-01
567,25	-9,4500E-01
567,61	-5,9636E-01
567,96	-1,4096E-01
568,31	8,0609E-01
568,66	1,6357E00
569,02	5,9656E-01
569,37	-4,9710E-01
569,72	1,6627E00
570,07	3,5284E-01
570,42	7,4568E-01
570,78	4,6570E-01
571,13	1,2458E00
571,48	0,0000E00
571,83	2,8863E-01
572,18	6,1006E-01
572,54	1,2465E00
572,89	1,0975E-01
573,24	1,1431E00
573,59	3,2420E-01
573,94	5,3464E-01
574,30	-1,2213E00
574,65	3,5700E-02
575,00	4,3276E-01
575,35	6,4641E-01
575,70	-1,8028E-01
576,05	0,0000E00
576,40	-4,6978E-01
576,76	-2,5186E-01
577,11	-5,4049E-01
577,46	-4,3466E-01
577,81	1,0772E00
578,16	-1,0902E-01
578,51	-7,5229E-01
578,86	3,2170E-01
579,21	7,9916E-01
579,57	1,0611E00
579,92	4,3411E-01
580,27	-6,5593E-01
580,62	1,0669E00
580,97	1,0173E00
581,32	-1,4620E-01
581,67	-3,2887E-01
582,02	-3,2595E-01
582,37	-3,9928E-01
582,72	6,1959E-01
583,08	3,6807E-01
583,43	1,4596E-01
583,78	-4,7287E-01
584,13	6,2240E-01
584,48	8,4509E-01
584,83	-7,2923E-01
585,18	-1,3571E00
585,53	-5,8510E-01
585,88	-2,9120E-01
586,23	-1,4225E00
586,58	-6,9348E-01
586,93	-1,4476E-01
587,28	-1,0959E-01
587,63	-1,4186E00
587,98	2,9215E-01
588,33	4,7493E-01
588,68	5,4869E-01
589,03	1,4551E-01
589,38	1,8063E00
589,73	7,2929E-02
590,08	2,9410E-01
590,43	8,7721E-01
590,78	-2,8953E-01
591,13	-8,4647E-01
591,48	6,2163E-01
591,83	3,6381E-01
592,18	9,9556E-01
592,53	-1,6212E00
592,88	-6,2714E-01
593,23	5,8316E-01
593,58	-1,4585E-01
593,93	1,2044E00
594,28	-1,8381E-01
594,63	-1,1132E-01
594,98	-8,4668E-01
595,33	7,3574E-02
595,68	9,1705E-01
596,02	5,1819E-01
596,37	-1,4750E-01
596,72	-2,2062E-01
597,07	3,6603E-02
597,42	5,9208E-01
597,77	-1,8463E-01
598,12	6,2721E-01
598,47	1,3756E00
598,82	5,2093E-01
599,17	3,3231E-01
599,52	-6,3424E-01
599,86	2,6070E-01
600,21	-1,3061E00
600,56	-7,1277E-01
600,91	-6,0166E-01
601,26	-3,7704E-02
601,61	-1,5032E00
601,96	-4,8553E-01
602,30	-6,7580E-01
602,65	-6,3977E-01
603,00	-4,1889E-01
603,35	-8,3359E-01
603,70	-1,2884E00
604,05	1,9074E-01
604,40	2,2752E-01
604,74	9,1746E-01
605,09	4,1940E-01
605,44	7,2660E-01
605,79	3,4662E-01
606,14	-1,2312E00
606,48	-1,1872E00
606,83	3,0962E-01
607,18	-5,0445E-01
607,53	-7,8005E-01
607,88	-7,7682E-02
608,22	4,7116E-01
608,57	-1,2049E00
608,92	1,1725E00
609,27	-4,7394E-01
609,62	1,2996E00
609,96	-3,5323E-01
610,31	-2,7760E-01
610,66	1,1528E00
611,01	1,8666E00
611,35	-1,5934E-01
611,70	2,4282E-01
612,05	6,4238E-01
612,40	2,3022E00
612,74	1,2161E-01
613,09	1,6209E-01
613,44	-5,2601E-01
613,79	2,0297E-01
614,13	1,3965E00
614,48	-5,3143E-01
614,83	-1,3014E00
615,17	5,7685E-01
615,52	9,8096E-01
615,87	-1,5230E00
616,22	-1,1572E00
616,56	8,3156E-01
616,91	5,3997E-01
617,26	-5,8591E-01
617,60	-1,4941E00
617,95	3,7612E-01
618,30	-5,4769E-01
618,64	8,8581E-01
618,99	-1,7211E00
619,34	-1,2614E-01
619,68	1,6772E-01
620,03	-1,2755E-01
620,38	-4,2203E-02
620,72	2,1138E-01
621,07	-9,8300E-01
621,42	-4,2677E-01
621,76	1,6828E-01
622,11	-1,0271E00
622,45	-1,8147E00
622,80	1,1611E00
623,15	-1,1604E00
623,49	2,5953E-01
623,84	9,8939E-01
624,18	-1,2986E-01
624,53	5,1881E-01
624,88	1,5690E00
625,22	-2,6360E-01
625,57	-9,5845E-01
625,91	-2,1519E00
626,26	-7,0002E-01
626,61	1,3221E-01
626,95	-1,7157E00
627,30	-8,3876E-01
627,64	-1,1002E00
627,99	-3,5582E-01
628,33	3,5324E-01
628,68	4,0291E-01
629,03	-2,2140E-01
629,37	-4,0085E-01
629,72	4,5085E-02
630,06	9,8009E-01
630,41	2,4594E00
630,75	1,4924E00
631,10	-1,0283E00
631,44	2,0869E00
631,79	-1,0439E00
632,13	-9,1259E-02
632,48	1,3551E00
632,82	-3,1843E-01
633,17	1,3817E-01
633,51	-6,7926E-01
633,86	9,5458E-01
634,20	7,3494E-01
634,55	1,5546E00
634,89	-1,1558E00
635,24	-1,8258E-01
635,58	4,1427E-01
635,93	-1,1108E00
636,27	-2,7601E-01
636,62	2,3041E-01
636,96	1,5226E00
637,30	1,0619E00
637,65	-2,2300E00
637,99	5,0954E-01
638,34	-1,0197E00
638,68	-4,6747E-01
639,03	3,7110E-01
639,37	1,3056E00
639,71	5,5933E-01
640,06	8,4000E-01
640,40	9,3635E-01
640,75	-4,7042E-01
641,09	1,4059E-01
641,44	1,6499E00
641,78	1,1270E00
642,12	-2,3634E-01
642,47	1,1316E00
642,81	1,0428E00
643,15	-1,6044E00
643,50	9,4089E-02
643,84	5,6696E-01
644,19	-9,5658E-02
644,53	3,3348E-01
644,87	3,3282E-01
645,22	-8,1840E-01
645,56	4,3231E-01
645,90	7,6708E-01
646,25	1,4436E00
646,59	1,2957E00
646,93	1,3537E00
647,28	8,2151E-01
647,62	-8,2176E-01
647,96	1,9394E-01
648,31	1,0742E00
648,65	-8,7505E-01
648,99	-1,1598E00
649,34	5,3771E-01
649,68	-1,0713E00
650,02	1,3612E00
650,36	1,9536E-01
650,71	-4,8723E-02
651,05	-7,8287E-01
651,39	-1,4855E00
651,74	1,9795E-01
652,08	6,9503E-01
652,42	-5,9458E-01
652,76	-8,0206E-01
653,11	-1,5054E-01
653,45	-1,5006E00
653,79	-2,3702E00
654,13	3,0233E-01
654,48	7,5656E-01
654,82	1,1109E00
655,16	-6,5634E-01
655,50	9,5988E-01
655,85	-2,0355E-01
656,19	1,4153E00
656,53	5,1209E-01
656,87	1,3845E00
657,21	1,7796E00
657,56	-2,5616E-01
657,90	2,0392E-01
658,24	2,5503E-01
658,58	-6,6504E-01
658,92	1,5449E-01
659,27	9,2480E-01
659,61	-1,0349E-01
659,95	-7,2427E-01
660,29	6,7192E-01
660,63	1,1402E00
660,97	-1,2454E00
661,32	5,2254E-01
661,66	-3,6682E-01
662,00	-3,1613E-01
662,34	1,2116E00
662,68	-3,6950E-01
663,02	-3,1755E-01
663,37	5,3171E-02
663,71	-9,6005E-01
664,05	2,0176E00
664,39	4,8564E-01
664,73	1,8156E00
665,07	5,8921E-01
665,41	-2,6971E-01
665,75	-2,1547E-01
666,09	-1,6829E00
666,44	-3,7821E-01
666,78	4,9131E-01
667,12	3,8382E-01
667,46	4,3882E-01
667,80	-1,8887E00
668,14	-5,5146E-02
668,48	-1,6408E-01
668,82	1,4915E00
669,16	-8,9268E-01
669,50	-1,9477E00
669,84	-1,5541E00
670,18	-5,5341E-02
670,52	-1,0596E00
670,86	5,5968E-01
671,20	5,6647E-01
671,54	-1,6947E-01
671,88	1,7150E-01
672,22	1,6548E00
672,57	4,0101E-01
672,91	2,2856E-01
673,25	1,3848E00
673,59	2,0133E00
673,93	2,3910E00
674,27	-5,7850E-01
674,61	0,0000E00
674,95	1,2722E00
675,28	6,4492E-01
675,62	1,1712E-01
675,96	-2,0518E00
676,30	-8,2727E-01
676,64	1,4849E00
676,98	-1,0036E00
677,32	1,7895E-01
677,66	1,0758E00
678,00	-2,2691E00
678,34	5,3578E-01
678,68	-7,2127E-01
679,02	1,7308E00
679,36	3,0374E-01
679,70	3,6389E-01
680,04	-4,8852E-01
680,38	3,0551E-01
680,72	4,8842E-01
681,06	-3,0388E-01
681,39	1,6440E00
681,73	6,7147E-01
682,07	2,1627E00
682,41	1,4888E00
682,75	1,2435E-01
683,09	-1,1136E00
683,43	3,7581E-01
683,77	6,2855E-02
684,11	-1,8273E00
684,44	1,4549E00
684,78	2,5133E00
685,12	-1,8223E00
685,46	1,2636E-01
685,80	-9,5036E-01
686,14	4,4386E-01
686,48	-7,6206E-01
686,81	1,9151E-01
687,15	5,1604E-01
687,49	-1,0239E00
687,83	2,2462E00
688,17	4,5253E-01
688,51	-1,2434E00
688,84	1,1852E00
689,18	8,5365E-01
689,52	5,9326E-01
689,86	2,2339E00
690,20	-5,3206E-01
690,53	3,9655E-01
690,87	1,3082E00
691,21	1,7861E00
691,55	2,0739E00
691,88	-2,2575E00
692,22	5,3500E-01
692,56	-1,0638E00
692,90	0,0000E00
693,23	2,0105E-01
693,57	-5,3550E-01
693,91	0,0000E00
694,25	4,0590E-01
694,58	0,0000E00
694,92	2,5071E00
695,26	-6,1707E-01
695,60	1,7213E00
695,93	1,9765E00
696,27	-2,1044E00
696,61	-1,1651E00
696,94	-1,5248E00
697,28	1,5739E00
697,62	-6,8544E-02
697,96	-8,3045E-01
698,29	-1,5855E00
698,63	-1,1749E00
698,97	-1,0434E00
699,30	-1,1833E00
699,64	-3,5044E-01
699,98	1,3308E00
700,31	-1,2569E00
700,65	1,6618E00
700,99	1,1967E00
701,32	4,2186E-01
701,66	-1,8339E00
702,00	-2,6858E00
702,33	-4,9050E-01
702,67	0,0000E00
703,00	-7,8484E-01
703,34	-2,2609E00
703,68	2,8431E-01
704,01	6,4536E-01
704,35	-1,7939E00
704,69	3,2088E00
705,02	7,8901E-01
705,36	1,5645E00
705,69	2,7172E00
706,03	1,2177E00
706,36	-1,0781E00
706,70	6,4448E-01
707,04	-7,2011E-01
707,37	3,5674E-01
707,71	-7,2612E-02
708,04	-9,3736E-01
708,38	1,8019E00
708,71	-2,8783E-01
709,05	9,3940E-01
709,39	1,3785E00
709,72	2,9013E-01
710,06	-7,3392E-02
710,39	1,4619E00
710,73	2,7131E00
711,06	2,1990E00
711,40	8,0455E-01
711,73	1,0297E00
712,07	5,8355E-01
712,40	-6,6461E-01
712,74	1,9175E00
713,07	1,7638E00
713,41	-8,8869E-01
713,74	2,5277E00
714,08	7,3689E-02
714,41	7,4120E-01
714,75	-6,7120E-01
715,08	-1,2652E00
715,42	-2,9856E-01
715,75	1,7996E00
716,08	-9,7123E-01
716,42	-3,5044E00
716,75	-2,5370E00
717,09	1,9527E00
717,42	3,7608E-01
717,76	7,5379E-02
718,09	6,0113E-01
718,43	6,7819E-01
718,76	1,0477E00
719,09	-8,2897E-01
719,43	-1,7304E00
719,76	6,0606E-01
720,10	-1,5312E-01
720,43	1,4425E00
720,76	-8,3922E-01
721,10	-1,5155E-01
721,43	-2,4466E00
721,76	-1,0612E00
722,10	1,4546E00
722,43	1,8314E00
722,77	1,0003E00
723,10	6,1546E-01
723,43	1,2200E00
723,77	3,8468E-01
724,10	4,6088E-01
724,43	2,2166E00
724,77	2,3153E-01
725,10	9,2177E-01
725,43	-1,5311E-01
725,77	-2,6570E00
726,10	-3,1067E-01
726,43	4,6385E-01
726,77	-2,1870E00
727,10	-8,5543E-01
727,43	0,0000E00
727,77	-2,2547E00
728,10	-4,6978E-01
728,43	8,6059E-01
728,76	-1,3353E00
729,10	-1,1743E00
729,43	7,9013E-02
729,76	3,0595E00
730,09	1,5715E-01
730,43	7,1228E-01
730,76	6,3453E-01
731,09	1,1195E00
731,42	-7,1644E-01
731,76	7,9482E-02
732,09	-1,9388E00
732,42	-1,9338E00
732,75	-7,2921E-01
733,09	2,7647E00
733,42	1,0597E00
733,75	2,4408E-01
734,08	4,0810E-01
734,41	1,8792E00
734,75	4,0384E-01
735,08	-2,4406E-01
735,41	5,7028E-01
735,74	2,4396E-01
736,07	-1,4756E00
736,41	-1,0679E00
736,74	7,4078E-01
737,07	-1,2343E00
737,40	-2,0415E00
737,73	1,9750E00
738,06	2,1537E00
738,40	-1,4129E00
738,73	-1,9163E00
739,06	9,9887E-01
739,39	2,5995E00
739,72	3,2382E00
740,05	-8,3581E-02
740,38	2,6104E00
740,72	-2,3697E00
741,05	-1,6849E-01
741,38	-4,2409E-01
741,71	1,4537E00
742,04	1,7093E-01
742,37	3,4272E-01
742,70	1,1099E00
743,03	8,6012E-01
743,36	1,2925E00
743,69	1,0345E00
744,02	0,0000E00
744,36	-3,4506E-01
744,69	-3,3919E00
745,02	2,6087E-01
745,35	-2,7252E00
745,68	8,8109E-01
746,01	-1,4971E00
746,34	-1,3923E00
746,67	3,2794E00
747,00	0,0000E00
747,33	1,9503E00
747,66	-8,9112E-02
747,99	-4,4355E-01
748,32	2,4794E00
748,65	1,7937E-01
748,98	2,0666E00
749,31	-2,9619E00
749,64	2,4291E00
749,97	1,4327E00
750,30	-1,8870E00
750,63	-3,7522E00
750,96	9,0882E-01
751,29	-2,7267E-01
751,62	-1,1885E00
751,95	-4,0464E00
752,28	-3,6872E-01
752,61	-9,3103E-02
752,94	1,3916E00
753,27	6,5415E-01
753,60	-9,3265E-02
753,92	1,9689E00
754,25	-1,5883E00
754,58	1,6972E00
754,91	0,0000E00
755,24	9,3931E-02
755,57	2,0720E00
755,90	2,8186E00
756,23	1,9307E-01
756,56	1,3238E00
756,89	1,0553E00
757,22	2,2095E00
757,54	3,8581E-01
757,87	9,6462E-02
758,20	1,3476E00
758,53	-4,8298E-01
758,86	-2,4365E00
759,19	-1,8590E00
759,52	-2,1477E00
759,84	-7,8642E-01
760,17	-2,1721E00
760,50	2,9618E00
760,83	1,9555E-01
761,16	-2,2427E00
761,49	0,0000E00
761,81	-1,6899E00
762,14	1,5238E00
762,47	1,4188E00
762,80	-3,0231E-01
763,13	1,9135E00
763,45	-1,5233E00
763,78	-1,6225E00
764,11	-1,2216E00
764,44	7,1882E-01
764,77	-2,5548E00
765,09	9,2501E-01
765,42	-6,1675E-01
765,75	-1,2454E00
766,08	-1,1362E00
766,40	7,2884E-01
766,73	-3,1157E-01
767,06	2,5231E00
767,39	-1,0583E00
767,71	-4,1061E00
768,04	1,4963E00
768,37	-1,1628E00
768,70	1,1724E00
769,02	-7,4304E-01
769,35	-1,9107E00
769,68	2,1247E00
770,00	2,1316E00
770,33	3,7542E00
770,66	1,5118E00
770,99	5,4079E-01
771,31	-1,1990E00
771,64	-5,4488E-01
771,97	4,1636E00
772,29	1,8717E00
772,62	6,3649E00
772,95	3,7490E00
773,27	2,7625E00
773,60	1,1142E-01
773,93	-2,2180E-01
774,25	2,4372E00
774,58	-1,0066E00
774,90	-6,4837E00
775,23	4,0463E00
775,56	-4,5038E00
775,88	-1,1222E-01
776,21	-3,7364E00
776,54	-1,7054E00
776,86	9,0829E-01
777,19	-4,5322E-01
777,51	-2,4372E00
777,84	5,6519E-01
778,16	4,5649E-01
778,49	3,2395E00
778,82	4,0694E00
779,14	2,3255E-01
779,47	1,9494E00
779,79	-7,0505E-01
780,12	2,1187E00
780,44	2,3589E00
780,77	-3,5262E-01
781,10	-3,5296E-01
781,42	5,5251E00
781,75	-7,1052E-01
782,07	-1,3107E00
782,40	-1,2026E-01
782,72	-2,2937E00
783,05	-1,2128E00
783,37	-1,4574E00
783,70	-6,0528E-01
784,02	-4,8348E-01
784,35	1,2136E00
784,67	4,0196E00
785,00	1,4925E00
785,32	2,3550E00
785,65	4,9758E-01
785,97	3,0983E00
786,30	-1,7673E00
786,62	0,0000E00
786,94	2,1306E00
787,27	-6,2865E-01
787,59	3,5200E00
787,92	7,5163E-01
788,24	-6,2798E-01
788,57	-7,5717E-01
788,89	2,8927E00
789,22	-1,5108E00
789,54	-6,2646E-01
789,86	-2,2553E00
790,19	2,2631E00
790,51	1,2661E00
790,84	-1,7556E00
791,16	8,8794E-01
791,48	-3,8215E00
791,81	1,3938E00
792,13	-1,7460E00
792,45	5,0592E-01
792,78	-1,6402E00
793,10	-1,2534E00
793,43	-2,7650E00
793,75	-2,6382E00
794,07	-2,9116E00
794,40	9,9733E-01
794,72	3,1498E00
795,04	-2,5110E00
795,37	1,6185E00
795,69	2,8850E00
796,01	1,8669E00
796,34	0,0000E00
796,66	2,7540E00
796,98	-7,4310E-01
797,30	4,2560E00
797,63	-3,0860E00
797,95	-1,7084E00
798,27	0,0000E00
798,60	-1,8183E00
798,92	-2,3422E00
799,24	-3,3198E00
799,56	-2,3416E00
799,89	-4,0711E00
800,21	-2,4656E-01
800,53	-1,3607E00
800,85	-2,5569E00
801,18	-3,4649E00
801,50	-1,4653E00
801,82	1,5888E00
802,14	1,3541E00
802,47	3,6423E-01
802,79	3,4443E00
803,11	4,0660E00
803,43	4,8938E-01
803,75	4,1717E00
804,08	7,3643E-01
804,40	0,0000E00
804,72	1,0967E00
805,04	2,9441E00
805,36	-2,2324E00
805,69	-1,4781E00
806,01	3,6968E-01
806,33	2,4670E00
806,65	2,0091E00
806,97	-6,2248E-01
807,29	0,0000E00
807,62	-6,2001E-01
807,94	2,1117E00
808,26	-1,7503E00
808,58	-1,2555E00
808,90	-9,9644E-01
809,22	-1,5039E00
809,54	-1,3885E00
809,86	1,2476E-01
810,18	8,8161E-01
810,51	2,3787E00
810,83	3,6802E00
811,15	3,9133E00
811,47	2,5285E00
811,79	-2,2886E00
812,11	-2,3061E00
812,43	7,6826E-01
812,75	-3,4579E00
813,07	-2,0422E00
813,39	3,9750E00
813,71	2,5670E-01
814,03	-3,2102E00
814,35	6,1914E00
814,67	-1,2919E-01
814,99	-5,0741E00
815,31	1,1736E00
815,64	0,0000E00
815,96	-4,2833E00
816,28	-2,6052E-01
816,60	-2,6296E00
816,92	3,1484E00
817,24	-3,4166E00
817,56	3,9519E-01
817,88	7,8983E-01
818,19	-2,9015E00
818,51	2,0116E00
818,83	-3,5758E00
819,15	-5,3423E00
819,47	3,0463E00
819,79	-1,3262E00
820,11	3,5111E00
820,43	-8,1132E-01
820,75	9,4747E-01
821,07	1,3551E-01
821,39	3,7955E00
821,71	-1,0809E00
822,03	-3,0145E00
822,35	-6,8244E-01
822,67	1,3777E-01
822,99	-3,3045E00
823,31	-2,8899E00
823,62	8,2725E-01
823,94	-4,7553E00
824,26	-4,1781E00
824,58	-2,3641E00
824,90	1,8312E00
825,22	1,3996E00
825,54	-1,4137E00
825,86	1,5509E00
826,17	1,2663E00
826,49	3,2568E00
826,81	2,9883E00
827,13	5,2663E00
827,45	1,8602E00
827,77	5,8751E00
828,08	-2,0204E00
828,40	3,0106E00
828,72	6,0112E00
829,04	4,0525E00
829,36	-7,6129E00
829,67	4,3635E-01
829,99	2,6262E00
830,31	-2,6698E00
830,63	3,4115E00
830,95	-2,4982E00
831,26	0,0000E00
831,58	2,9678E-01
831,90	3,5557E00
832,22	-2,8499E00
832,53	3,7362E00
832,85	4,2128E00
833,17	5,0980E00
833,49	1,5221E-01
833,80	1,5197E-01
834,12	-6,4176E00
834,44	5,8446E00
834,76	2,7335E00
835,07	-5,5648E00
835,39	6,6153E00
835,71	1,8577E00
836,02	-6,1952E00
836,34	1,5613E-01
836,66	7,8013E-01
836,97	-6,2236E-01
837,29	-9,0799E00
837,61	4,0962E00
837,93	4,0817E00
838,24	-4,7288E-01
838,56	0,0000E00
838,88	5,1310E00
839,19	6,0616E00
839,51	-1,4537E00
839,82	1,2915E00
840,14	-1,2823E00
840,46	-2,8799E00
840,77	-3,4010E00
841,09	-1,7917E00
841,41	1,6200E00
841,72	-2,1137E00
842,04	-4,3760E00
842,35	9,2100E00
842,67	2,4791E00
842,99	1,9806E00
843,30	8,3241E-01
843,62	-6,6856E-01
843,93	1,6639E00
844,25	4,3464E00
844,56	5,2482E00
844,88	-4,9286E00
845,20	-1,1945E00
845,51	-1,3718E00
845,83	-1,3744E00
846,14	-8,5046E-01
846,46	-3,2440E00
846,77	-1,0124E01
847,09	-5,2380E-01
847,40	-3,8482E00
847,72	-1,2239E00
848,03	8,7123E-01
848,35	-2,2685E00
848,66	-3,6901E00
848,98	0,0000E00
849,29	5,9057E00
849,61	5,3106E-01
849,92	-7,1388E-01
850,24	-3,5634E-01
850,55	2,1414E00
850,87	1,4398E00
851,18	0,0000E00
851,50	-2,5221E00
851,81	-6,8560E00
852,12	5,5110E-01
852,44	9,1299E-01
852,75	2,5838E00
853,07	-5,3411E00
853,38	2,7539E00
853,70	2,9898E00
854,01	2,2348E00
854,32	3,8068E-01
854,64	-6,6855E00
854,95	1,8892E-01
855,27	3,7512E00
855,58	1,3129E00
855,89	-5,7270E-01
856,21	-1,9217E-01
856,52	4,7829E00
856,83	-1,9223E-01
857,15	3,6681E00
857,46	-1,1582E00
857,77	7,8108E-01
858,09	1,9580E-01
858,40	-7,5721E00
858,71	3,3358E00
859,03	-1,3855E00
859,34	3,9750E00
859,65	1,3826E00
859,97	-2,9897E00
860,28	1,4129E00
860,59	1,0137E00
860,91	-4,0416E-01
861,22	9,0284E00
861,53	4,2486E00
861,84	1,2217E00
862,16	-8,1773E-01
862,47	-1,4355E00
862,78	-3,6875E00
863,10	2,0666E-01
863,41	4,1292E00
863,72	5,6129E00
864,03	-2,9318E00
864,35	0,0000E00
864,66	-6,7207E00
864,97	-2,3141E00
865,28	-1,7047E00
865,59	1,0739E00
865,91	-3,6725E00
866,22	3,6559E00
866,53	6,4752E00
866,84	5,2336E00
867,15	3,6818E00
867,47	1,3084E00
867,78	7,7529E00
868,09	5,0940E00
868,40	2,6766E00
868,71	8,1483E00
869,02	2,0092E00
869,34	-1,3478E00
869,65	-3,1440E00
869,96	-7,5959E00
870,27	1,3550E00
870,58	-4,3528E00
870,89	-5,2992E00
871,20	1,1417E00
871,52	3,7441E00
871,83	7,6214E00
872,14	1,3667E01
872,45	5,1181E00
872,76	5,6992E00
873,07	6,3819E00
873,38	4,2761E00
873,69	2,3812E-01
874,00	-2,8903E00
874,31	7,6112E00
874,62	2,4711E00
874,94	-4,3914E00
875,25	-9,5351E00
875,56	1,0453E01
875,87	-9,2215E00
876,18	-9,9379E-01
876,49	4,9622E-01
876,80	2,9724E00
877,11	3,9529E00
877,42	-5,7778E00
877,73	-5,2599E00
878,04	-5,5179E00
878,35	-4,6986E00
878,66	-5,5737E00
878,97	-8,6634E00
879,28	5,0837E00
879,59	-3,2899E00
879,90	-3,3469E00
880,21	-2,2722E00
880,52	-2,2948E00
880,83	5,6692E00
881,14	1,0240E01
881,45	-8,7415E00
881,76	-3,0745E00
882,07	3,3153E00
882,37	-5,1772E00
882,68	-3,0713E00
882,99	-5,3617E00
883,30	-2,5441E-01
883,61	-3,8390E00
883,92	4,8560E00
884,23	2,0711E00
884,54	-1,2688E00
884,85	-1,3041E00
885,16	0,0000E00
885,47	-1,8096E00
885,77	7,8141E-01
886,08	-1,5642E00
886,39	-5,4050E00
886,70	-3,6354E00
887,01	-1,5423E00
887,32	1,7825E00
887,63	9,0280E00
887,93	1,2640E00
888,24	3,1032E00
888,55	8,1618E00
888,86	-5,0977E-01
889,17	7,4453E00
889,47	5,6408E00
889,78	4,3632E00
890,09	3,5479E00
890,40	-3,8874E00
890,71	1,0299E00
891,01	-8,7820E00
891,32	-1,0505E01
891,63	2,0672E00
891,94	-6,1069E00
892,25	0,0000E00
892,55	-1,4030E01
892,86	-1,0228E01
893,17	-2,5444E-01
893,48	-2,0452E00
893,78	0,0000E00
894,09	5,9077E00
894,40	3,3348E00
894,70	1,1125E01
895,01	1,5266E00
895,32	1,0484E01
895,63	-1,5442E00
895,93	6,9484E00
896,24	5,9150E00
896,55	-1,0323E00
896,85	5,1871E-01
897,16	-2,3062E00
897,47	1,7970E00
897,77	-7,7023E-01
898,08	6,9985E00
898,39	4,1893E00
898,69	7,7084E-01
899,00	0,0000E00
899,31	-7,1098E00
899,61	5,4680E00
899,92	7,2293E00
900,23	-5,2269E-01
900,53	-4,4606E00
900,84	-1,5515E00
901,14	-4,4259E00
901,45	-5,4399E00
901,76	-1,2986E00
902,06	-3,9555E00
902,37	7,6190E00
902,67	1,0542E01
902,98	6,4389E00
903,29	-4,9651E00
903,59	-5,2268E00
903,90	1,1775E01
904,20	5,3602E00
904,51	1,1432E01
904,81	-2,1359E00
905,12	-8,1224E-01
905,42	-1,5767E01
905,73	-4,3172E00
906,03	-8,0825E-01
906,34	-1,3403E01
906,64	-5,4610E-01
906,95	4,5929E00
907,25	-6,2911E00
907,56	-6,7988E00
907,86	-3,6335E00
908,17	7,1785E00
908,47	2,7896E00
908,78	5,6233E00
909,08	2,5517E00
909,39	-3,1338E00
909,69	6,2498E00
910,00	3,6808E00
910,30	-5,7324E00
910,61	-5,8186E00
910,91	-6,8778E00
911,21	-2,0483E00
911,52	1,0540E01
911,82	-8,8744E-01
912,13	4,3493E00
912,43	-2,3144E00
912,74	-2,9542E00
913,04	-1,1839E00
913,34	2,3593E00
913,65	5,4357E00
913,95	-5,4364E00
914,25	-1,2716E01
914,56	-3,6314E00
914,86	-3,0487E00
915,17	-8,2629E00
915,47	0,0000E00
915,77	-3,9990E00
916,08	-1,1810E01
916,38	4,7394E00
916,68	-2,2220E00
916,99	1,3561E01
917,29	-2,5091E00
917,59	5,9502E00
917,90	-7,3374E00
918,20	6,7451E00
918,50	1,6157E00
918,80	-7,4724E00
919,11	-8,0854E00
919,41	2,6283E00
919,71	8,5896E00
920,02	5,8570E00
920,32	6,4906E-01
920,62	-1,2116E01
920,92	4,0166E00
921,23	-1,3575E00
921,53	-5,1114E00
921,83	1,0195E01
922,13	-1,3500E00
922,44	5,1230E00
922,74	3,4788E00
923,04	-1,6161E01
923,34	8,7007E00
923,64	7,7033E00
923,95	-7,6044E00
924,25	-7,0721E00
924,55	-3,5998E-01
924,85	-1,0760E01
925,15	2,5156E00
925,46	-2,4765E00
925,76	1,0026E01
926,06	-1,8032E00
926,36	4,3970E00
926,66	4,4329E00
926,96	1,8409E00
927,26	1,4078E01
927,57	-4,1083E00
927,87	-3,0012E00
928,17	9,7504E00
928,47	-5,6324E00
928,77	-4,9403E00
929,07	1,9383E00
929,37	-7,6845E-01
929,67	-2,7018E00
929,98	-7,0369E00
930,28	3,8431E-01
930,58	-1,1777E00
930,88	-5,8944E00
931,18	-1,0657E01
931,48	1,5051E01
931,78	-6,8689E00
932,08	-2,0095E00
932,38	-5,6678E00
932,68	1,2268E00
932,98	6,6020E00
933,28	0,0000E00
933,58	-6,2754E00
933,88	1,6497E00
934,18	9,2995E00
934,48	-5,5459E00
934,78	-8,1275E00
935,08	-1,2681E00
935,38	1,4389E01
935,68	-1,7278E00
935,98	2,6096E00
936,28	-1,0925E01
936,58	-2,2059E01
936,88	-8,0104E00
937,18	-2,2423E01
937,48	-4,3769E00
937,78	-6,2696E00
938,08	-4,0772E00
938,38	3,1537E00
938,68	-3,6078E00
938,98	7,7955E00
939,28	1,2944E01
939,57	-4,2294E00
939,87	1,1780E01
940,17	1,4932E01
940,47	1,2331E01
940,77	-4,2562E00
941,07	9,5813E-01
941,37	-2,9317E00
941,67	-1,2683E01
941,97	7,4031E00
942,26	2,9496E00
942,56	-1,3725E01
942,86	4,0346E00
943,16	8,3876E00
943,46	-3,0089E00
943,76	9,0882E00
944,06	1,5265E00
944,35	-3,0179E00
944,65	8,7433E00
944,95	9,7936E00
945,25	2,4375E01
945,55	-1,0377E00
945,84	8,8775E00
946,14	6,8950E00
946,44	3,2216E00
946,74	1,7475E01
947,03	8,6626E00
947,33	-2,1666E01
947,63	-1,1491E01
947,93	2,1951E00
948,23	-1,6832E01
948,52	6,6793E00
948,82	8,9444E00
949,12	8,4513E00
949,41	4,5746E00
949,71	-5,1441E00
950,01	-1,2630E01
950,31	-5,8000E-01
950,60	-2,9372E00
950,90	5,3222E00
951,20	4,7963E00
951,49	2,3991E00
951,79	1,7798E01
952,09	3,5878E00
952,38	1,1619E01
952,68	1,1234E01
952,98	3,0358E00
953,27	6,3055E-01
953,57	1,0142E01
953,87	1,2608E00
954,16	1,0588E01
954,46	4,4960E00
954,76	1,5620E01
955,05	-1,9267E01
955,35	3,1806E00
955,64	-1,1171E01
955,94	1,3025E01
956,24	-6,5784E-01
956,53	7,8145E00
956,83	1,1263E01
957,12	9,4714E00
957,42	-1,5175E01
957,72	-1,0868E01
958,01	-2,6212E01
958,31	-1,9657E01
958,60	-1,6084E01
958,90	-1,3508E01
959,19	-1,7066E01
959,49	-8,4388E00
959,78	8,4656E00
960,08	1,0179E01
960,37	3,1815E01
960,67	-3,6529E00
960,96	2,9509E00
961,26	2,4227E01
961,55	-8,7432E00
961,85	1,4282E01
962,14	1,5001E00
962,44	-2,2364E01
962,73	7,6401E00
963,03	3,6831E01
963,32	5,3842E00
963,62	2,2078E01
963,91	-9,4517E00
964,21	1,7610E01
964,50	3,9623E00
964,80	8,0638E-01
965,09	-2,7025E01
965,38	-1,4742E01
965,68	-8,2663E-01
965,97	6,4697E00
966,27	-3,1015E01
966,56	2,7577E01
966,85	2,0967E01
967,15	2,5685E00
967,44	-5,0641E00
967,74	1,5530E01
968,03	-2,6249E01
968,32	-3,6132E01
968,62	-1,0525E01
968,91	-2,5799E01
969,20	3,5337E00
969,50	9,0250E-01
969,79	1,7239E01
970,08	2,7441E00
970,38	-2,6913E00
970,67	-3,9129E01
970,96	-2,3797E01
971,26	-2,8529E01
971,55	-2,8179E01
971,84	-9,6873E-01
972,13	1,7317E01
972,43	-1,5775E01
972,72	-2,4109E01
973,01	6,7491E00
973,31	-1,3874E01
973,60	1,5970E01
973,89	-9,1591E00
974,18	2,4841E01
974,48	5,6342E01
974,77	1,4261E01
975,06	1,7255E01
975,35	-1,1491E01
975,64	1,3693E01
975,94	1,4836E01
976,23	-3,2001E00
976,52	3,3374E01
976,81	-2,3224E01
977,10	-3,3315E00
977,40	2,3198E01
977,69	1,1255E00
977,98	-4,0690E01
978,27	1,2638E01
978,56	3,5520E01
978,86	1,2560E01
979,15	1,1562E00
979,44	9,3339E00
979,73	2,4187E00
980,02	-2,7449E01
980,31	-2,1905E01
980,60	-9,6622E00
980,89	6,0638E00
981,19	-2,0794E01
981,48	0,0000E00
981,77	7,4445E00
982,06	5,0858E00
982,35	3,9086E00
982,64	1,2976E00
982,93	3,3790E01
983,22	2,9034E01
983,51	5,2295E01
983,80	2,1889E01
984,09	-1,4453E01
984,38	1,3468E01
984,67	-4,1470E00
984,96	6,6034E01
985,25	-9,7656E00
985,55	5,0689E01
985,84	1,4118E01
986,13	-3,7371E01
986,42	1,7270E01
986,71	-3,2597E01
987,00	-3,2119E01
987,29	1,4690E00
987,58	-5,8897E01
987,86	2,4242E01
988,15	-5,4151E01
988,44	4,5789E00
988,73	-3,0522E00
989,02	-1,4079E01
989,31	-1,2522E01
989,60	-4,2539E01
989,89	3,1182E01
990,18	6,4342E00
990,47	1,2995E01
990,76	3,5935E01
991,05	-3,2840E01
991,34	2,0304E01
991,63	8,6337E00
991,92	-2,0256E01
992,20	5,2631E01
992,49	2,2155E01
992,78	-2,1000E01
993,07	-1,4095E01
993,36	-1,2735E01
993,65	-2,7237E01
993,94	1,8069E00
994,22	4,5198E01
994,51	-3,7973E01
994,80	-4,1654E01
995,09	1,3025E01
995,38	-5,7119E01
995,67	7,7759E01
995,95	-3,8902E00
996,24	3,7164E01
996,53	-3,9539E01
996,82	-9,2376E01
997,11	-7,1074E01
997,39	-4,0966E00
997,68	3,6060E01
997,97	8,4315E00
998,26	-3,0910E01
998,54	-4,8490E01
998,83	-2,5703E01
999,12	5,9919E01
999,41	3,9242E01
999,69	-4,7239E01
999,98	1,3311E01
1000,27	4,4738E00
1000,56	4,4102E01
1000,84	-1,0691E02
1001,13	-6,1942E01
1001,42	-4,1962E01
1001,70	-4,7571E01
1001,99	-6,2476E01
1002,28	-4,7469E01
1002,56	-8,6965E01
1002,85	-1,9821E01
1003,14	-2,9868E01
1003,42	-2,2529E01
1003,71	3,2560E01
1004,00	5,6564E01
1004,28	7,5966E01
1004,57	2,3899E01
1004,86	9,9701E01
1005,14	5,2058E00
1005,43	-8,4528E01
1005,72	-5,7933E01
1006,00	8,3016E00
1006,29	6,1574E01
1006,57	-2,7896E00
1006,86	-2,2691E01
1007,15	2,8979E00
1007,43	-1,0714E02
1007,72	3,6552E01
1008,00	7,0097E01
1008,29	-1,4735E01
1008,57	6,6833E01
1008,86	-6,1825E00
1009,14	4,6006E01
1009,43	3,9921E01
1009,71	-3,2090E01
1010,00	-2,8833E01
1010,29	-6,2030E01
1010,57	-4,7488E01
1010,86	-8,2337E01
1011,14	-5,3025E01
1011,43	-5,2703E01
1011,71	4,0437E01
1011,99	-1,7586E01
1012,28	-2,1318E01
1012,56	-3,5634E00
1012,85	8,3342E01
1013,13	1,2297E02
1013,42	3,2673E01
1013,70	3,6622E00
1013,99	-9,1172E01
1014,27	1,2061E02
1014,56	8,6548E01
1014,84	2,7168E01
1015,12	-4,3128E01
1015,41	6,0493E01
1015,69	-2,8607E01
1015,98	-8,5039E01
1016,26	-1,2728E01
1016,54	-2,4831E01
1016,83	2,3280E02
1017,11	-2,1700E01
1017,39	4,8422E01
1017,68	-3,4321E01
1017,96	-7,4761E01
1018,25	1,3071E02
1018,53	8,3594E01
1018,81	2,3978E01
1019,10	7,9472E01
1019,38	-2,3474E01
1019,66	8,0696E01
1019,94	1,1987E02
1020,23	-9,7189E01
1020,51	2,3109E02
1020,79	1,2121E02
1021,08	2,4518E01
1021,36	-2,1047E01
1021,64	-1,4455E02
1021,93	-6,7991E01
1022,21	-4,8501E01
1022,49	-4,8501E01
>>>>>End Processed Spectral Data<<<<<
