SpectraSuite Data File
++++++++++++++++++++++++++++++++++++
Date: Thu Apr 21 10:50:30 EEST 2016
User: mkilpela
Dark Spectrum Present: Yes
Reference Spectrum Present: No
Number of Sampled Component Spectra: 1
Spectrometers: JAZA2845
Integration Time (usec): 45040 (JAZA2845)
Spectra Averaged: 1 (JAZA2845)
Boxcar Smoothing: 0 (JAZA2845)
Correct for Electrical Dark: No (JAZA2845)
Strobe/Lamp Enabled: No (JAZA2845)
Correct for Detector Non-linearity: No (JAZA2845)
Correct for Stray Light: No (JAZA2845)
Number of Pixels in Processed Spectrum: 2048
>>>>>Begin Processed Spectral Data<<<<<
340,21	-0,0000E00
340,58	-0,0000E00
340,96	-0,0000E00
341,33	-0,0000E00
341,70	-0,0000E00
342,07	-0,0000E00
342,45	-0,0000E00
342,82	-0,0000E00
343,19	0,0000E00
343,57	-0,0000E00
343,94	-0,0000E00
344,31	0,0000E00
344,68	0,0000E00
345,06	0,0000E00
345,43	0,0000E00
345,80	0,0000E00
346,18	-0,0000E00
346,55	-0,0000E00
346,92	-0,0000E00
347,29	-0,0000E00
347,67	0,0000E00
348,04	0,0000E00
348,41	0,0000E00
348,78	-0,0000E00
349,16	-0,0000E00
349,53	0,0000E00
349,90	0,0000E00
350,27	-9,6819E-02
350,64	3,6373E-02
351,02	-2,9022E-02
351,39	-5,4056E-03
351,76	-5,0511E-02
352,13	5,2032E-02
352,51	-9,3918E-03
352,88	-7,6579E-03
353,25	-2,9138E-03
353,62	1,2809E-02
353,99	-1,4916E-02
354,37	2,9183E-02
354,74	-1,6560E-03
355,11	-1,0622E-01
355,48	-2,5561E-02
355,85	3,6829E-02
356,23	2,9554E-02
356,60	8,3204E-03
356,97	1,2669E-02
357,34	5,2712E-01
357,71	-5,3230E-03
358,08	-1,6810E-02
358,46	7,1821E-02
358,83	7,4595E-03
359,20	-1,8045E-02
359,57	-1,0223E-02
359,94	2,1674E-02
360,31	6,9443E-03
360,69	4,7399E-02
361,06	-3,0156E-03
361,43	1,2314E-03
361,80	1,7292E-02
362,17	-4,7490E-03
362,54	1,1556E-02
362,91	1,6548E-02
363,29	-4,8211E-03
363,66	1,2080E-01
364,03	2,5742E-02
364,40	-2,5445E-02
364,77	-9,0068E-03
365,14	1,0677E-02
365,51	-2,6854E-02
365,88	2,2809E-02
366,26	9,6293E-03
366,63	8,0871E-03
367,00	-1,6351E-02
367,37	2,0218E-02
367,74	-8,4302E-03
368,11	-2,8782E-02
368,48	2,6097E-03
368,85	1,1605E-02
369,22	2,0942E-03
369,59	0,0000E00
369,97	-9,7972E-03
370,34	-1,6859E-02
370,71	-8,7309E-03
371,08	7,5016E-03
371,45	2,8735E-02
371,82	4,2962E-03
372,19	-1,8378E-02
372,56	-3,0664E-02
372,93	-6,0616E-03
373,30	-1,2835E-02
373,67	-1,4726E-02
374,04	-1,4551E-03
374,41	8,1461E-04
374,78	1,6457E-02
375,15	2,6356E-02
375,52	7,4428E-03
375,89	9,1522E-03
376,26	-1,1854E-02
376,63	-1,5397E-02
377,00	3,2120E-03
377,38	8,5445E-03
377,75	-4,7501E-03
378,12	3,8118E-02
378,49	-8,6468E-03
378,86	-6,1165E-03
379,23	1,8009E-02
379,60	-6,6743E-03
379,97	1,0267E-02
380,34	6,7417E-03
380,71	-4,1203E-03
381,08	0,0000E00
381,45	1,2031E-02
381,82	0,0000E00
382,19	2,6743E-03
382,55	-9,2580E-04
382,92	3,2535E-02
383,29	2,6795E-02
383,66	-7,0193E-03
384,03	9,6793E-03
384,40	-5,0029E-03
384,77	2,3655E-02
385,14	1,4504E-02
385,51	1,9574E-02
385,88	1,8351E-03
386,25	4,5369E-03
386,62	-5,1621E-03
386,99	-1,6045E-02
387,36	6,6520E-03
387,73	9,4053E-03
388,10	2,1421E-02
388,47	1,8371E-02
388,84	7,1141E-03
389,21	1,3502E-02
389,58	8,3648E-03
389,94	1,9406E-02
390,31	5,1000E-03
390,68	6,4919E-03
391,05	8,9053E-03
391,42	9,9027E-03
391,79	-1,3978E-02
392,16	1,2114E-02
392,53	1,2079E-02
392,90	-7,8266E-03
393,27	9,9726E-03
393,63	9,7472E-03
394,00	-2,3327E-03
394,37	1,4213E-02
394,74	1,7539E-03
395,11	5,9373E-03
395,48	8,0973E-03
395,85	1,3507E-02
396,22	1,1745E-02
396,58	4,9064E-03
396,95	5,5788E-03
397,32	1,2471E-02
397,69	8,5289E-03
398,06	1,4524E-02
398,43	-3,6613E-03
398,80	-2,5094E-02
399,16	6,0804E-03
399,53	1,3651E-02
399,90	-4,8957E-04
400,27	2,4789E-03
400,64	-1,9408E-02
401,01	8,3628E-03
401,37	2,6096E-03
401,74	1,8420E-02
402,11	1,0072E-02
402,48	-5,3004E-03
402,85	1,0619E-02
403,22	2,9434E-02
403,58	6,0095E-03
403,95	1,0141E-02
404,32	1,8133E-02
404,69	1,5845E-02
405,06	6,5850E-03
405,42	9,9126E-04
405,79	2,0789E-02
406,16	1,1462E-02
406,53	-5,8366E-03
406,89	8,8862E-04
407,26	6,2862E-03
407,63	4,2795E-04
408,00	4,1790E-04
408,37	5,6584E-03
408,73	6,4379E-03
409,10	6,9390E-03
409,47	0,0000E00
409,84	0,0000E00
410,20	2,5035E-02
410,57	9,6784E-03
410,94	1,5306E-02
411,31	9,9692E-03
411,67	1,4287E-02
412,04	1,9348E-02
412,41	6,8340E-03
412,77	1,1263E-02
413,14	3,3099E-02
413,51	2,3740E-02
413,88	1,8024E-02
414,24	2,6715E-02
414,61	1,5938E-02
414,98	2,1108E-02
415,34	1,0564E-02
415,71	2,8720E-02
416,08	2,4134E-02
416,45	1,8281E-02
416,81	2,0063E-02
417,18	1,4083E-02
417,55	1,3974E-02
417,91	2,4557E-02
418,28	2,0960E-02
418,65	2,7940E-02
419,01	2,7613E-02
419,38	3,1315E-02
419,75	4,0217E-02
420,11	3,2519E-02
420,48	4,0938E-02
420,85	4,4636E-02
421,21	4,1136E-02
421,58	5,9522E-02
421,95	4,4431E-02
422,31	4,6607E-02
422,68	4,9970E-02
423,05	4,6145E-02
423,41	7,0528E-02
423,78	5,2541E-02
424,15	5,9489E-02
424,51	7,1062E-02
424,88	7,1529E-02
425,24	7,0091E-02
425,61	8,5722E-02
425,98	8,1104E-02
426,34	8,4342E-02
426,71	9,1701E-02
427,07	1,0898E-01
427,44	1,0697E-01
427,81	1,4120E-01
428,17	1,2349E-01
428,54	1,3614E-01
428,90	1,6559E-01
429,27	1,6823E-01
429,64	1,6190E-01
430,00	1,7040E-01
430,37	1,8621E-01
430,73	2,0531E-01
431,10	2,4554E-01
431,46	2,3737E-01
431,83	2,5557E-01
432,20	2,7431E-01
432,56	2,9672E-01
432,93	3,0205E-01
433,29	3,2440E-01
433,66	3,6622E-01
434,02	3,5861E-01
434,39	3,8744E-01
434,75	4,3480E-01
435,12	4,1102E-01
435,49	5,0330E-01
435,85	5,4417E-01
436,22	5,1922E-01
436,58	5,9238E-01
436,95	6,1439E-01
437,31	6,2977E-01
437,68	6,9974E-01
438,04	7,0945E-01
438,41	7,9587E-01
438,77	8,1509E-01
439,14	9,1246E-01
439,50	9,1128E-01
439,87	9,9912E-01
440,23	1,0495E00
440,60	1,1195E00
440,96	1,1530E00
441,33	1,2640E00
441,69	1,3361E00
442,06	1,4245E00
442,42	1,4863E00
442,78	1,5731E00
443,15	1,6387E00
443,51	1,7770E00
443,88	1,8213E00
444,24	1,9456E00
444,61	2,1117E00
444,97	2,2101E00
445,34	2,1992E00
445,70	2,4499E00
446,07	2,5335E00
446,43	2,5912E00
446,79	2,6507E00
447,16	2,8178E00
447,52	3,0340E00
447,89	3,2064E00
448,25	3,2370E00
448,62	3,3429E00
448,98	3,6850E00
449,34	3,7667E00
449,71	3,8299E00
450,07	4,1505E00
450,44	4,1924E00
450,80	4,1782E00
451,16	4,5038E00
451,53	4,5095E00
451,89	4,8627E00
452,25	4,8650E00
452,62	5,1396E00
452,98	5,1041E00
453,35	5,4015E00
453,71	5,6873E00
454,07	5,7792E00
454,44	5,7026E00
454,80	5,7239E00
455,16	5,9527E00
455,53	5,9393E00
455,89	6,2279E00
456,25	6,2103E00
456,62	6,2591E00
456,98	6,4893E00
457,34	6,3877E00
457,71	6,4377E00
458,07	6,5223E00
458,43	6,8819E00
458,80	6,7297E00
459,16	6,5865E00
459,52	6,4541E00
459,89	6,6313E00
460,25	6,3955E00
460,61	6,4450E00
460,98	6,5287E00
461,34	6,3953E00
461,70	6,3605E00
462,07	6,3258E00
462,43	6,0540E00
462,79	6,2724E00
463,15	6,0700E00
463,52	5,9031E00
463,88	5,9869E00
464,24	5,9536E00
464,61	5,5923E00
464,97	5,6491E00
465,33	5,4825E00
465,69	5,4142E00
466,06	5,3055E00
466,42	5,0308E00
466,78	5,0160E00
467,14	4,9019E00
467,51	4,8381E00
467,87	4,5893E00
468,23	4,5707E00
468,59	4,3776E00
468,95	4,2231E00
469,32	4,1548E00
469,68	3,9475E00
470,04	3,8379E00
470,40	3,8165E00
470,77	3,6441E00
471,13	3,6030E00
471,49	3,4762E00
471,85	3,3485E00
472,21	3,2162E00
472,58	3,2113E00
472,94	3,0483E00
473,30	2,8894E00
473,66	2,9067E00
474,02	2,7377E00
474,39	2,7762E00
474,75	2,5682E00
475,11	2,4203E00
475,47	2,3725E00
475,83	2,3313E00
476,19	2,1684E00
476,56	2,1796E00
476,92	2,1407E00
477,28	2,0466E00
477,64	2,0043E00
478,00	1,8671E00
478,36	1,8360E00
478,72	1,7266E00
479,09	1,6795E00
479,45	1,6341E00
479,81	1,6106E00
480,17	1,5441E00
480,53	1,4627E00
480,89	1,4570E00
481,25	1,3800E00
481,61	1,3026E00
481,97	1,3095E00
482,34	1,2281E00
482,70	1,2063E00
483,06	1,1651E00
483,42	1,1358E00
483,78	1,0778E00
484,14	1,0271E00
484,50	9,9211E-01
484,86	9,5981E-01
485,22	9,3789E-01
485,58	8,8614E-01
485,94	8,8795E-01
486,31	8,3683E-01
486,67	7,9300E-01
487,03	7,8302E-01
487,39	7,5820E-01
487,75	7,2467E-01
488,11	6,9399E-01
488,47	6,8490E-01
488,83	6,5616E-01
489,19	6,3033E-01
489,55	6,1239E-01
489,91	5,6654E-01
490,27	5,7214E-01
490,63	5,4473E-01
490,99	5,2679E-01
491,35	4,9876E-01
491,71	4,8551E-01
492,07	4,5731E-01
492,43	4,5954E-01
492,79	4,3606E-01
493,15	4,2216E-01
493,51	4,1264E-01
493,87	3,9615E-01
494,23	3,7354E-01
494,59	3,7074E-01
494,95	3,5927E-01
495,31	3,4759E-01
495,67	3,2018E-01
496,03	3,1748E-01
496,39	3,1854E-01
496,75	2,9601E-01
497,11	2,8672E-01
497,47	2,7809E-01
497,83	2,6960E-01
498,19	2,6862E-01
498,55	2,5193E-01
498,91	2,4052E-01
499,27	2,2950E-01
499,63	2,3340E-01
499,98	2,2235E-01
500,34	2,0212E-01
500,70	2,1028E-01
501,06	2,1049E-01
501,42	1,9401E-01
501,78	1,8995E-01
502,14	1,7909E-01
502,50	1,7353E-01
502,86	1,6866E-01
503,22	1,6089E-01
503,58	1,5869E-01
503,94	1,5836E-01
504,29	1,4587E-01
504,65	1,4162E-01
505,01	1,3472E-01
505,37	1,2683E-01
505,73	1,2649E-01
506,09	1,2404E-01
506,45	1,1348E-01
506,81	1,1710E-01
507,16	1,1198E-01
507,52	1,0734E-01
507,88	1,0317E-01
508,24	1,0049E-01
508,60	1,0202E-01
508,96	9,3272E-02
509,32	8,9240E-02
509,67	8,6457E-02
510,03	8,4086E-02
510,39	8,7390E-02
510,75	7,8140E-02
511,11	7,8283E-02
511,47	7,6965E-02
511,82	7,8044E-02
512,18	7,4750E-02
512,54	6,6387E-02
512,90	6,6162E-02
513,26	6,4136E-02
513,61	6,9002E-02
513,97	6,2012E-02
514,33	5,8815E-02
514,69	5,8444E-02
515,05	5,6423E-02
515,40	5,5737E-02
515,76	5,1985E-02
516,12	5,2256E-02
516,48	4,9746E-02
516,83	4,6627E-02
517,19	4,7161E-02
517,55	4,7963E-02
517,91	4,3172E-02
518,26	4,4203E-02
518,62	4,3992E-02
518,98	4,0606E-02
519,34	3,6751E-02
519,69	3,5898E-02
520,05	3,7501E-02
520,41	3,4400E-02
520,77	3,3865E-02
521,12	3,4329E-02
521,48	3,0277E-02
521,84	3,3824E-02
522,19	3,0929E-02
522,55	2,8304E-02
522,91	3,2435E-02
523,27	2,8690E-02
523,62	2,6247E-02
523,98	2,8811E-02
524,34	2,7548E-02
524,69	2,5135E-02
525,05	2,9504E-02
525,41	2,7272E-02
525,76	2,2331E-02
526,12	2,3316E-02
526,48	2,2799E-02
526,83	2,4801E-02
527,19	2,2638E-02
527,55	2,3502E-02
527,90	1,9743E-02
528,26	2,1681E-02
528,62	1,7207E-02
528,97	1,9456E-02
529,33	2,0082E-02
529,69	1,9687E-02
530,04	1,4901E-02
530,40	1,5909E-02
530,76	1,6694E-02
531,11	1,8077E-02
531,47	1,5869E-02
531,82	1,3296E-02
532,18	1,5750E-02
532,54	1,5468E-02
532,89	1,3449E-02
533,25	8,5695E-03
533,60	1,1510E-02
533,96	1,0623E-02
534,32	1,1901E-02
534,67	9,7190E-03
535,03	1,0494E-02
535,38	1,0922E-02
535,74	1,2518E-02
536,10	7,8319E-03
536,45	1,1562E-02
536,81	1,4152E-02
537,16	1,3622E-02
537,52	1,1932E-02
537,87	1,0167E-02
538,23	1,2760E-02
538,58	9,2656E-03
538,94	6,1265E-03
539,30	9,1116E-03
539,65	8,4387E-03
540,01	9,0856E-03
540,36	8,7559E-03
540,72	8,3307E-03
541,07	9,0051E-03
541,43	6,6372E-03
541,78	1,1433E-02
542,14	1,1436E-02
542,49	9,4711E-03
542,85	9,3392E-03
543,20	3,3217E-03
543,56	4,6676E-03
543,91	9,0157E-03
544,27	9,8476E-03
544,62	7,3019E-03
544,98	8,7012E-03
545,33	7,3294E-03
545,69	7,6268E-03
546,04	4,0659E-03
546,40	8,8581E-03
546,75	4,9881E-03
547,10	6,3702E-03
547,46	4,3228E-03
547,81	6,3852E-03
548,17	5,3919E-03
548,52	5,0267E-03
548,88	5,0889E-03
549,23	4,4262E-03
549,59	4,1328E-03
549,94	7,2689E-03
550,29	7,6155E-03
550,65	6,9533E-03
551,00	5,5160E-03
551,36	6,6991E-03
551,71	3,8360E-03
552,06	7,5329E-03
552,42	6,2802E-03
552,77	6,0049E-03
553,13	3,5498E-03
553,48	3,1418E-03
553,83	3,9736E-03
554,19	6,2466E-03
554,54	2,1784E-03
554,90	7,4991E-03
555,25	3,9505E-03
555,60	3,9209E-03
555,96	7,8919E-04
556,31	3,9613E-03
556,66	5,3750E-03
557,02	1,2803E-03
557,37	2,8896E-03
557,72	4,4803E-03
558,08	5,0104E-03
558,43	7,2755E-03
558,79	1,6981E-03
559,14	1,1941E-03
559,49	-2,1921E-03
559,85	7,9315E-04
560,20	3,1122E-03
560,55	2,1985E-03
560,90	5,9726E-04
561,26	2,5962E-03
561,61	4,0028E-04
561,96	2,2237E-03
562,32	-1,7213E-03
562,67	5,0670E-03
563,02	1,9274E-03
563,38	6,0302E-04
563,73	4,0575E-03
564,08	2,2455E-03
564,43	-1,0165E-04
564,79	4,8023E-03
565,14	1,9586E-03
565,49	2,7831E-03
565,84	6,1933E-04
566,20	3,7354E-03
566,55	3,8974E-03
566,90	1,8811E-03
567,25	2,3662E-03
567,61	3,7132E-03
567,96	2,0781E-03
568,31	1,5593E-03
568,66	2,3822E-03
569,02	1,6670E-03
569,37	3,4821E-03
569,72	5,0404E-03
570,07	1,7845E-03
570,42	1,8969E-03
570,78	5,5319E-03
571,13	-1,0575E-04
571,48	-9,5484E-04
571,83	2,5509E-03
572,18	5,1934E-03
572,54	-1,2719E-03
572,89	5,0051E-03
573,24	-3,5966E-03
573,59	-2,1268E-04
573,94	4,9628E-03
574,30	2,5686E-03
574,65	-8,5893E-04
575,00	3,8407E-03
575,35	3,9802E-03
575,70	7,4261E-03
576,05	4,8225E-03
576,40	5,4156E-04
576,76	6,0250E-03
577,11	3,2188E-04
577,46	3,6659E-03
577,81	3,8889E-03
578,16	5,0909E-03
578,51	-3,2725E-04
578,86	3,7941E-03
579,21	1,5180E-03
579,57	3,6189E-03
579,92	2,4945E-03
580,27	3,1617E-03
580,62	1,6476E-03
580,97	-6,5583E-04
581,32	3,2875E-03
581,67	3,8384E-03
582,02	3,9646E-03
582,37	1,8760E-03
582,72	-5,5064E-04
583,08	1,1079E-04
583,43	2,1968E-04
583,78	2,3141E-03
584,13	5,0634E-03
584,48	-5,5360E-04
584,83	-1,3306E-03
585,18	-8,8592E-04
585,53	1,4375E-03
585,88	-4,2853E-03
586,23	1,4576E-03
586,58	8,8870E-04
586,93	2,2059E-03
587,28	-2,2302E-04
587,63	-2,2074E-04
587,98	-2,4494E-03
588,33	3,3343E-04
588,68	1,1263E-03
589,03	-1,7769E-03
589,38	1,9034E-03
589,73	-1,1220E-04
590,08	1,2321E-03
590,43	-7,8731E-04
590,78	-3,1266E-03
591,13	2,4623E-03
591,48	-1,1173E-04
591,83	8,9306E-04
592,18	-8,9665E-04
592,53	1,5694E-03
592,88	2,9047E-03
593,23	1,9189E-03
593,58	1,8006E-03
593,93	1,8141E-03
594,28	2,3595E-03
594,63	2,7257E-03
594,98	-6,7378E-04
595,33	4,7373E-03
595,68	2,2732E-03
596,02	3,2911E-03
596,37	1,8094E-03
596,72	4,4555E-03
597,07	-1,2487E-03
597,42	-5,0431E-03
597,77	9,0988E-04
598,12	-1,1421E-03
598,47	1,6156E-03
598,82	2,1696E-03
599,17	-5,7568E-04
599,52	-6,9373E-04
599,86	3,2141E-03
600,21	-5,7841E-04
600,56	-1,1685E-04
600,91	7,6688E-03
601,26	2,2018E-03
601,61	-1,2719E-03
601,96	3,4953E-03
602,30	4,6086E-03
602,65	6,0799E-03
603,00	3,7987E-03
603,35	0,0000E00
603,70	-1,0659E-03
604,05	2,1350E-03
604,40	-7,1015E-04
604,74	3,5489E-04
605,09	1,1981E-04
605,44	5,2612E-03
605,79	-5,9895E-04
606,14	1,6787E-03
606,48	2,4106E-03
606,83	7,2150E-04
607,18	1,3330E-03
607,53	2,7931E-03
607,88	1,0925E-03
608,22	-7,2841E-04
608,57	1,9439E-03
608,92	8,5823E-04
609,27	2,7031E-03
609,62	3,0719E-03
609,96	5,0375E-03
610,31	6,1674E-04
610,66	3,0963E-03
611,01	-6,1971E-04
611,35	1,6182E-03
611,70	-1,5022E-03
612,05	5,0058E-04
612,40	-7,1683E-03
612,74	6,3091E-04
613,09	6,2969E-04
613,44	-2,3964E-03
613,79	-1,0169E-03
614,13	-1,0217E-03
614,48	2,7822E-03
614,83	3,7284E-03
615,17	-4,1241E-03
615,52	1,2863E-03
615,87	4,7590E-03
616,22	1,5409E-03
616,56	7,7295E-03
616,91	0,0000E00
617,26	-7,8204E-04
617,60	5,3164E-03
617,95	1,0431E-03
618,30	3,2884E-03
618,64	-2,7530E-03
618,99	1,4406E-03
619,34	1,5952E-03
619,68	-3,9451E-04
620,03	2,3756E-03
620,38	1,7147E-03
620,72	1,0556E-03
621,07	-5,2866E-04
621,42	0,0000E00
621,76	3,7129E-03
622,11	-3,9941E-04
622,45	-1,3536E-03
622,80	-1,2071E-03
623,15	3,2660E-03
623,49	3,6457E-03
623,84	2,5814E-03
624,18	-4,0616E-03
624,53	5,4429E-04
624,88	-1,2248E-03
625,22	-2,7394E-04
625,57	-2,7340E-03
625,91	2,6293E-03
626,26	9,7184E-04
626,61	2,8962E-03
626,95	2,6296E-03
627,30	3,7459E-03
627,64	3,4589E-03
627,99	6,7072E-03
628,33	6,6562E-03
628,68	4,4750E-03
629,03	8,4153E-04
629,37	1,5421E-03
629,72	1,5536E-03
630,06	-1,8182E-03
630,41	-2,8395E-04
630,75	-9,9058E-04
631,10	-2,5508E-03
631,44	-2,8275E-03
631,79	2,8557E-04
632,13	-3,1248E-03
632,48	1,2830E-03
632,82	-2,8478E-04
633,17	2,7197E-03
633,51	2,8958E-03
633,86	1,5833E-03
634,20	5,3546E-03
634,55	1,8750E-03
634,89	-1,4512E-04
635,24	1,3110E-03
635,58	2,4797E-03
635,93	1,8961E-03
636,27	-4,3609E-04
636,62	3,3770E-03
636,96	-2,9249E-04
637,30	-4,5626E-03
637,65	-2,9571E-04
637,99	0,0000E00
638,34	-2,9562E-04
638,68	-4,6232E-03
639,03	-8,8678E-04
639,37	1,7929E-03
639,71	-1,7789E-03
640,06	1,2022E-03
640,40	-2,9846E-04
640,75	5,2842E-03
641,09	3,1420E-03
641,44	-2,5473E-03
641,78	-4,4830E-04
642,12	1,0566E-03
642,47	-6,0684E-04
642,81	2,8556E-03
643,15	1,9845E-03
643,50	1,0670E-03
643,84	2,8832E-03
644,19	1,5329E-04
644,53	4,1323E-03
644,87	4,5863E-04
645,22	1,3811E-03
645,56	-3,0771E-03
645,90	3,0906E-03
646,25	6,0093E-03
646,59	4,3372E-03
646,93	5,1266E-03
647,28	4,6461E-03
647,62	7,7780E-04
647,96	2,5074E-03
648,31	-4,7018E-04
648,65	-2,6633E-03
648,99	2,4918E-03
649,34	9,4640E-04
649,68	3,3141E-03
650,02	-3,6375E-03
650,36	3,1589E-03
650,71	1,4243E-03
651,05	6,3717E-04
651,39	5,4306E-03
651,74	6,3451E-04
652,08	-1,1245E-03
652,42	3,1909E-04
652,76	-9,7149E-04
653,11	8,0976E-04
653,45	4,8694E-04
653,79	6,1959E-03
654,13	7,4542E-03
654,48	7,4772E-03
654,82	-1,9557E-03
655,16	4,2771E-03
655,50	-1,4865E-03
655,85	-1,6618E-04
656,19	3,4375E-03
656,53	-4,3180E-03
656,87	-2,3212E-03
657,21	1,6650E-03
657,56	7,0052E-03
657,90	3,1618E-03
658,24	8,4004E-04
658,58	-8,4208E-04
658,92	0,0000E00
659,27	-1,6732E-04
659,61	1,0109E-03
659,95	3,7062E-03
660,29	-6,7801E-04
660,63	1,1950E-03
660,97	-2,0328E-03
661,32	8,5509E-04
661,66	4,9491E-03
662,00	1,7087E-04
662,34	1,7254E-04
662,68	0,0000E00
663,02	-5,1711E-04
663,37	-3,4393E-03
663,71	-6,9776E-04
664,05	2,9566E-03
664,39	-1,9207E-03
664,73	-1,7437E-03
665,07	-1,4236E-03
665,41	-4,2161E-03
665,75	0,0000E00
666,09	-2,1258E-03
666,44	3,1592E-03
666,78	-3,7433E-03
667,12	3,7714E-03
667,46	-7,1309E-04
667,80	1,8047E-03
668,14	3,6109E-04
668,48	9,9002E-03
668,82	-7,2539E-04
669,16	6,3425E-03
669,50	1,6344E-03
669,84	4,9267E-03
670,18	-1,4741E-03
670,52	-7,0149E-03
670,86	2,0414E-03
671,20	2,6023E-03
671,54	2,8154E-03
671,88	-9,3767E-04
672,22	1,8463E-04
672,57	-2,4341E-03
672,91	3,9628E-03
673,25	3,4377E-03
673,59	1,8688E-04
673,93	1,8960E-03
674,27	-3,2499E-03
674,61	2,1227E-03
674,95	8,6238E-03
675,28	-1,9260E-03
675,62	3,0912E-03
675,96	-1,5442E-03
676,30	-1,1544E-03
676,64	-1,1726E-03
676,98	-1,7460E-03
677,32	1,0322E-02
677,66	6,0938E-03
678,00	1,9500E-04
678,34	-1,5662E-03
678,68	8,3121E-03
679,02	3,7629E-03
679,36	6,5722E-03
679,70	-2,0020E-04
680,04	1,0163E-02
680,38	-1,2073E-03
680,72	4,2166E-03
681,06	-4,8219E-03
681,39	-1,0121E-03
681,73	-2,0147E-03
682,07	1,2180E-03
682,41	-4,2649E-03
682,75	1,8376E-03
683,09	5,1049E-03
683,43	-6,8070E-03
683,77	0,0000E00
684,11	8,2188E-04
684,44	-4,1563E-03
684,78	-6,2380E-04
685,12	4,1893E-03
685,46	5,2297E-03
685,80	6,3006E-04
686,14	6,4920E-03
686,48	-2,7501E-03
686,81	3,6169E-03
687,15	4,2447E-03
687,49	1,0667E-03
687,83	-4,2122E-04
688,17	3,2344E-03
688,51	1,5103E-03
688,84	-6,7141E-03
689,18	-4,7537E-03
689,52	-4,1422E-03
689,86	-3,4701E-03
690,20	-6,9481E-03
690,53	-1,1102E-02
690,87	-5,4460E-03
691,21	3,5232E-03
691,55	-2,8662E-03
691,88	-3,5562E-03
692,22	-4,6880E-03
692,56	3,1068E-03
692,90	2,2244E-03
693,23	6,0322E-03
693,57	4,9282E-03
693,91	-1,1224E-03
694,25	4,2699E-03
694,58	7,8677E-03
694,92	5,6311E-03
695,26	9,4393E-03
695,60	6,1583E-03
695,93	9,0712E-04
696,27	3,4070E-03
696,61	0,0000E00
696,94	-1,3791E-03
697,28	1,6144E-03
697,62	-5,1299E-03
697,96	1,1602E-03
698,29	3,4648E-03
698,63	1,6126E-03
698,97	5,1437E-03
699,30	1,3983E-03
699,64	2,0912E-03
699,98	-3,0494E-03
700,31	-6,5441E-03
700,65	-2,5698E-03
700,99	3,5595E-03
701,32	2,3665E-03
701,66	1,1832E-03
702,00	1,9022E-03
702,33	-9,4641E-04
702,67	3,3056E-03
703,00	4,0484E-03
703,34	2,8515E-03
703,68	3,8340E-03
704,01	8,0012E-03
704,35	7,5299E-03
704,69	-4,3499E-03
705,02	7,2740E-03
705,36	-3,1319E-03
705,69	4,8626E-04
706,03	4,1618E-03
706,36	-1,2125E-03
706,70	2,4456E-03
707,04	7,3575E-03
707,37	-2,4372E-04
707,71	-2,4374E-04
708,04	8,8731E-03
708,38	7,8292E-03
708,71	-3,9302E-03
709,05	1,4935E-03
709,39	4,4733E-03
709,72	-2,7544E-03
710,06	2,4904E-03
710,39	7,2900E-03
710,73	1,1476E-02
711,06	9,0709E-03
711,40	2,7783E-03
711,73	-3,0170E-03
712,07	2,2631E-03
712,40	8,5674E-03
712,74	-5,0360E-03
713,07	-2,2837E-03
713,41	-3,3086E-03
713,74	4,5837E-03
714,08	-2,3067E-03
714,41	6,2238E-03
714,75	1,8043E-03
715,08	-5,4112E-03
715,42	-1,0079E-02
715,75	-2,5944E-04
716,08	7,7819E-03
716,42	2,3481E-03
716,75	5,9835E-03
717,09	-1,8294E-03
717,42	-3,1516E-03
717,76	-3,3932E-03
718,09	-4,7055E-03
718,43	1,0587E-03
718,76	-6,0372E-03
719,09	-4,7281E-03
719,43	-7,6972E-03
719,76	4,8078E-03
720,10	-2,1404E-03
720,43	-2,6618E-04
720,76	1,8688E-03
721,10	4,2340E-03
721,43	-4,5340E-03
721,76	-4,0105E-03
722,10	2,1507E-03
722,43	1,1382E-02
722,77	1,0306E-02
723,10	-1,3595E-03
723,43	-6,2741E-03
723,77	-6,0355E-03
724,10	2,7392E-04
724,43	7,3570E-03
724,77	-5,1981E-03
725,10	-3,0474E-03
725,43	8,2065E-04
725,77	-6,8976E-03
726,10	5,5257E-04
726,43	5,5265E-04
726,77	3,9325E-03
727,10	5,0898E-03
727,43	3,0854E-03
727,77	1,4064E-03
728,10	5,6525E-03
728,43	1,2041E-02
728,76	3,4038E-03
729,10	1,4549E-02
729,43	5,3365E-03
729,76	2,5621E-03
730,09	1,4489E-03
730,43	2,5771E-03
730,76	-8,5878E-04
731,09	-6,6064E-03
731,42	8,6424E-04
731,76	-1,7335E-03
732,09	-5,2663E-03
732,42	-8,7184E-03
732,75	-8,7366E-04
733,09	1,1731E-03
733,42	4,4433E-03
733,75	1,1721E-03
734,08	5,3223E-03
734,41	-4,7638E-03
734,75	-2,3601E-03
735,08	1,3043E-02
735,41	-1,5321E-02
735,74	8,7369E-03
736,07	-9,7118E-03
736,41	-6,1131E-04
736,74	0,0000E00
737,07	6,0707E-03
737,40	4,2691E-03
737,73	-4,8601E-03
738,06	1,2344E-03
738,40	-2,7434E-03
738,73	-4,3050E-03
739,06	-6,2301E-04
739,39	-9,3083E-04
739,72	-5,2985E-03
740,05	-7,1293E-03
740,38	9,4767E-04
740,72	-5,0345E-03
741,05	4,4327E-03
741,38	-5,4000E-03
741,71	5,7458E-03
742,04	3,1941E-04
742,37	2,2625E-03
742,70	-6,4430E-04
743,03	-4,1853E-03
743,36	-5,5049E-03
743,69	9,7849E-04
744,02	1,9609E-03
744,36	3,9250E-03
744,69	9,8095E-04
745,02	0,0000E00
745,35	1,4483E-02
745,68	2,6565E-03
746,01	-1,2820E-02
746,34	-9,9715E-04
746,67	-5,0770E-03
747,00	-3,3608E-04
747,33	-4,0869E-03
747,66	-1,7026E-03
747,99	3,4257E-04
748,32	3,4066E-04
748,65	2,0583E-03
748,98	-1,0274E-02
749,31	-1,2417E-02
749,64	-8,9817E-03
749,97	-1,1126E-02
750,30	-3,4762E-04
750,63	7,0455E-04
750,96	7,0667E-03
751,29	1,7835E-03
751,62	6,7015E-03
751,95	-1,6077E-02
752,28	3,5769E-03
752,61	1,7915E-03
752,94	1,4460E-02
753,27	-2,5389E-03
753,60	3,6209E-04
753,92	-3,6308E-04
754,25	-2,1997E-03
754,58	1,2944E-02
754,91	1,8062E-02
755,24	1,4719E-03
755,57	-6,3104E-03
755,90	-2,6067E-03
756,23	3,7313E-04
756,56	-4,8481E-03
756,89	-3,8115E-03
757,22	-8,6246E-03
757,54	7,1456E-03
757,87	-3,4290E-03
758,20	-2,2796E-03
758,53	-9,9519E-03
758,86	1,4480E-02
759,19	1,1255E-02
759,52	-5,4188E-03
759,84	-3,1234E-03
760,17	7,8160E-03
760,50	7,8045E-04
760,83	1,4508E-02
761,16	-3,6355E-03
761,49	1,9959E-03
761,81	-5,1584E-03
762,14	-5,6412E-03
762,47	-9,6551E-03
762,80	2,3280E-02
763,13	-1,0124E-02
763,45	8,1494E-03
763,78	2,4259E-03
764,11	-1,2214E-03
764,44	-9,8186E-03
764,77	-1,6547E-03
765,09	-2,4560E-03
765,42	-7,0392E-03
765,75	9,9886E-03
766,08	2,5071E-03
766,40	1,6720E-03
766,73	3,3767E-03
767,06	-9,5873E-03
767,39	-1,3117E-02
767,71	-3,3887E-03
768,04	4,6576E-03
768,37	6,8651E-03
768,70	-1,4138E-02
769,02	1,4274E-02
769,35	6,0888E-03
769,68	7,8110E-03
770,00	-3,0360E-03
770,33	9,5755E-03
770,66	-5,7020E-03
770,99	-2,6545E-03
771,31	-9,2626E-03
771,64	-1,2033E-02
771,97	0,0000E00
772,29	1,2190E-02
772,62	7,6260E-03
772,95	-1,3566E-03
773,27	-1,8315E-02
773,60	1,4505E-02
773,93	-4,0736E-03
774,25	-4,5111E-04
774,58	-1,4267E-02
774,90	-9,2949E-04
775,23	2,3767E-02
775,56	1,0801E-02
775,88	9,3538E-04
776,21	-6,0625E-03
776,54	-4,2095E-03
776,86	0,0000E00
777,19	1,0398E-02
777,51	1,1406E-02
777,84	3,3078E-03
778,16	1,4810E-02
778,49	1,3455E-02
778,82	1,4325E-03
779,14	9,5560E-04
779,47	-4,8318E-04
779,79	-6,7991E-03
780,12	4,4072E-03
780,44	1,9511E-03
780,77	8,0003E-03
781,10	7,3871E-03
781,42	-7,3851E-03
781,75	-7,9529E-03
782,07	7,5584E-03
782,40	3,0117E-03
782,72	-3,5317E-03
783,05	-6,5908E-03
783,37	-2,0499E-03
783,70	5,1621E-03
784,02	-1,1702E-02
784,35	1,4776E-02
784,67	-4,1229E-03
785,00	3,6305E-03
785,32	-1,5687E-03
785,65	1,0409E-03
785,97	-6,3051E-03
786,30	-2,1633E-02
786,62	-1,4614E-02
786,94	4,2249E-03
787,27	-1,0606E-03
787,59	-1,9956E-02
787,92	-6,8972E-03
788,24	6,2470E-03
788,57	5,3791E-04
788,89	0,0000E00
789,22	-6,4241E-03
789,54	-1,3214E-02
789,86	-6,3975E-03
790,19	1,0841E-02
790,51	1,1160E-02
790,84	5,3870E-03
791,16	-9,7361E-03
791,48	-1,8371E-02
791,81	-7,0181E-03
792,13	1,5631E-02
792,45	1,6373E-02
792,78	-1,0218E-02
793,10	2,5198E-02
793,43	-1,1784E-02
793,75	5,4245E-03
794,07	1,2506E-02
794,40	-1,7252E-02
794,72	1,6240E-03
795,04	0,0000E00
795,37	1,1221E-02
795,69	-1,2405E-02
796,01	-1,3694E-02
796,34	-2,2428E-02
796,66	4,8579E-03
796,98	1,3869E-02
797,30	2,0535E-02
797,63	1,7601E-02
797,95	-1,6367E-02
798,27	2,1322E-03
798,60	-1,3170E-02
798,92	-1,2354E-02
799,24	-1,6385E-02
799,56	-5,8241E-03
799,89	-8,5423E-03
800,21	1,4343E-02
800,53	-5,8046E-03
800,85	-1,0638E-02
801,18	4,7704E-03
801,50	1,9800E-02
801,82	9,5779E-03
802,14	2,1522E-03
802,47	-3,7717E-03
802,79	7,9985E-03
803,11	-4,2992E-03
803,43	8,5022E-03
803,75	-1,0743E-03
804,08	-3,7955E-02
804,40	-1,9367E-02
804,72	-9,5692E-03
805,04	1,1919E-02
805,36	5,4068E-04
805,69	1,6192E-03
806,01	3,7555E-03
806,33	-7,6243E-03
806,65	-4,3615E-03
806,97	-5,4703E-03
807,29	7,1141E-03
807,62	-7,0045E-03
807,94	1,0386E-02
808,26	-2,7351E-03
808,58	-5,5338E-04
808,90	2,3376E-02
809,22	-2,2469E-03
809,54	2,1565E-02
809,86	-3,9307E-03
810,18	-2,2466E-03
810,51	3,3258E-03
810,83	1,6932E-03
811,15	2,8144E-03
811,47	-3,0170E-02
811,79	-5,6016E-03
812,11	-2,8130E-03
812,43	-2,7743E-02
812,75	-3,4343E-03
813,07	-9,7097E-03
813,39	-1,4794E-02
813,71	2,4318E-02
814,03	-1,9956E-02
814,35	-1,7285E-03
814,67	-5,7235E-03
814,99	5,8100E-04
815,31	-5,8241E-04
815,64	-2,3251E-03
815,96	-1,0414E-02
816,28	-7,5599E-03
816,60	-5,3016E-03
816,92	3,4570E-03
817,24	5,8902E-04
817,56	3,5434E-03
817,88	-2,9990E-03
818,19	-2,3744E-03
818,51	1,3177E-02
818,83	6,5855E-03
819,15	-1,1892E-02
819,47	2,4143E-03
819,79	0,0000E00
820,11	5,4352E-03
820,43	-1,6503E-02
820,75	0,0000E00
821,07	-5,5616E-03
821,39	-9,8680E-03
821,71	7,9831E-03
822,03	-1,3166E-02
822,35	3,1239E-03
822,67	1,6800E-02
822,99	3,7913E-03
823,31	-8,7044E-03
823,62	2,8846E-02
823,94	2,0403E-02
824,26	1,3408E-02
824,58	1,5188E-02
824,90	2,9326E-02
825,22	-8,2602E-03
825,54	-3,8952E-03
825,86	-5,2121E-03
826,17	6,5308E-03
826,49	4,5439E-03
826,81	-3,2798E-03
827,13	1,2400E-02
827,45	3,2803E-03
827,77	5,9883E-03
828,08	-2,2491E-02
828,40	-1,3312E-02
828,72	-9,4824E-03
829,04	-5,3564E-03
829,36	3,9971E-03
829,67	4,0483E-03
829,99	2,0130E-03
830,31	8,1707E-03
830,63	-2,4705E-02
830,95	5,4665E-03
831,26	-4,1011E-02
831,58	2,6930E-02
831,90	2,7937E-03
832,22	4,2044E-03
832,53	-7,8218E-03
832,85	-2,7038E-02
833,17	3,4911E-03
833,49	4,9581E-03
833,80	-7,1788E-04
834,12	-1,0116E-02
834,44	-1,3063E-02
834,76	8,5877E-03
835,07	-2,1181E-02
835,39	2,1777E-03
835,71	-2,1968E-03
836,02	1,1656E-02
836,34	1,2411E-02
836,66	-3,0701E-02
836,97	-2,0410E-02
837,29	-9,6008E-03
837,61	-1,7135E-02
837,93	1,1781E-02
838,24	1,4925E-03
838,56	-7,4569E-04
838,88	-3,0890E-02
839,19	2,2386E-03
839,51	2,5581E-02
839,82	7,6311E-03
840,14	-6,8026E-03
840,46	1,5279E-03
840,77	2,3060E-03
841,09	-3,0954E-03
841,41	-1,5322E-03
841,72	1,4802E-02
842,04	1,0146E-02
842,35	-2,5791E-02
842,67	-4,7161E-03
842,99	9,5396E-03
843,30	2,3510E-03
843,62	7,9759E-04
843,93	-3,2265E-02
844,25	-2,5164E-02
844,56	-3,5141E-02
844,88	-1,7099E-02
845,20	-5,6415E-03
845,51	2,5121E-02
845,83	7,2895E-03
846,14	8,2217E-04
846,46	-8,1391E-04
846,77	2,4618E-03
847,09	3,0946E-02
847,40	-7,4594E-03
847,72	9,1648E-03
848,03	-2,0985E-02
848,35	4,2120E-03
848,66	-2,1276E-02
848,98	-2,0443E-02
849,29	1,8709E-02
849,61	9,5268E-03
849,92	-6,0066E-03
850,24	9,5782E-03
850,55	2,6319E-03
850,87	-1,3873E-02
851,18	-2,6927E-02
851,50	5,2471E-03
851,81	1,7651E-02
852,12	-1,5860E-02
852,44	-5,3368E-03
852,75	8,9152E-03
853,07	8,8022E-04
853,38	-1,5318E-02
853,70	1,9891E-02
854,01	-2,7452E-03
854,32	-1,1845E-02
854,64	3,6916E-03
854,95	1,9258E-02
855,27	-1,7467E-02
855,58	-4,5601E-03
855,89	2,9164E-02
856,21	-9,2777E-03
856,52	-2,5981E-02
856,83	-8,4953E-03
857,15	-1,6825E-02
857,46	-3,1356E-02
857,77	1,6290E-02
858,09	-3,7901E-03
858,40	-2,6724E-02
858,71	2,2271E-02
859,03	1,4341E-02
859,34	-4,8833E-03
859,65	0,0000E00
859,97	5,1832E-02
860,28	-1,9860E-03
860,59	9,8378E-03
860,91	-1,6015E-02
861,22	2,0040E-03
861,53	-8,0791E-03
861,84	-8,0939E-03
862,16	-5,1186E-03
862,47	-1,0210E-03
862,78	4,1187E-03
863,10	-1,6369E-02
863,41	7,1873E-03
863,72	-5,6791E-02
864,03	-1,3628E-02
864,35	-4,1359E-03
864,66	-2,7151E-02
864,97	-1,8714E-02
865,28	5,2776E-03
865,59	1,4052E-02
865,91	-6,3749E-03
866,22	6,4437E-03
866,53	-1,3868E-02
866,84	4,1949E-02
867,15	4,2847E-03
867,47	7,6263E-03
867,78	-2,7305E-02
868,09	-1,8754E-02
868,40	8,8758E-03
868,71	4,4138E-03
869,02	-3,4443E-02
869,34	5,6701E-03
869,65	-6,2526E-02
869,96	2,8459E-02
870,27	9,1489E-03
870,58	-1,7253E-02
870,89	-1,9537E-02
871,20	2,2759E-03
871,52	-3,5864E-02
871,83	3,4602E-02
872,14	-2,8063E-02
872,45	3,5034E-03
872,76	-4,7098E-03
873,07	-2,8342E-02
873,38	-1,6620E-02
873,69	-8,3702E-03
874,00	-8,3996E-03
874,31	-1,2140E-02
874,62	2,0420E-02
874,94	1,3264E-02
875,25	-2,5403E-02
875,56	-2,2973E-02
875,87	-3,0829E-02
876,18	-6,6635E-02
876,49	4,6956E-02
876,80	2,3847E-02
877,11	4,9857E-03
877,42	4,9832E-03
877,73	5,7932E-02
878,04	-7,5242E-03
878,35	5,0597E-03
878,66	4,0890E-02
878,97	-1,8961E-02
879,28	5,1131E-03
879,59	1,2777E-02
879,90	2,9390E-02
880,21	-2,5933E-03
880,52	7,8018E-03
880,83	-1,4232E-02
881,14	-2,5884E-02
881,45	-2,6060E-02
881,76	-2,8520E-02
882,07	-3,2360E-02
882,37	3,8682E-03
882,68	-1,5344E-02
882,99	1,4268E-02
883,30	1,5490E-02
883,61	-2,7264E-02
883,92	-4,2867E-02
884,23	-7,0774E-02
884,54	-3,8275E-02
884,85	-2,5691E-02
885,16	-3,7944E-02
885,47	-1,6835E-02
885,77	-1,9353E-02
886,08	5,2809E-03
886,39	1,2954E-03
886,70	3,7607E-02
887,01	-1,8111E-02
887,32	6,4588E-03
887,63	-1,3062E-03
887,93	-5,1369E-03
888,24	-2,5770E-03
888,55	5,2380E-03
888,86	-3,1337E-02
889,17	-2,9765E-02
889,47	6,6006E-03
889,78	2,5741E-03
890,09	-1,3076E-02
890,40	-1,6980E-02
890,71	3,3989E-02
891,01	-1,3351E-03
891,32	-1,6781E-02
891,63	-1,9644E-02
891,94	-5,3033E-03
892,25	-1,2826E-02
892,55	1,4227E-02
892,86	2,4747E-02
893,17	6,6073E-02
893,48	3,4174E-02
893,78	1,9730E-02
894,09	3,0365E-02
894,40	2,3689E-02
894,70	-1,0538E-02
895,01	5,2201E-02
895,32	4,5368E-02
895,63	6,6176E-02
895,93	-9,3329E-03
896,24	3,1648E-02
896,55	-1,0572E-02
896,85	-1,7001E-02
897,16	5,2931E-03
897,47	-6,6189E-03
897,77	6,5602E-03
898,08	1,3349E-03
898,39	6,9451E-02
898,69	-5,4767E-02
899,00	-1,3431E-03
899,31	1,2085E-02
899,61	2,9351E-02
899,92	1,1992E-02
900,23	1,6273E-02
900,53	2,8793E-02
900,84	3,6624E-02
901,14	2,4641E-02
901,45	-8,1082E-03
901,76	-1,3600E-03
902,06	-4,3434E-02
902,37	-2,0437E-02
902,67	-5,4838E-02
902,98	4,0967E-03
903,29	1,6542E-02
903,59	-4,6858E-02
903,90	-1,5470E-02
904,20	-2,5073E-02
904,51	-1,5339E-02
904,81	0,0000E00
905,12	1,3869E-02
905,42	-1,8295E-02
905,73	-4,2279E-03
906,03	-3,8853E-02
906,34	-2,8528E-03
906,64	2,0225E-02
906,95	9,9829E-03
907,25	-1,3134E-02
907,56	3,2290E-02
907,86	-1,7545E-02
908,17	-2,9182E-03
908,47	-2,5178E-02
908,78	-5,0610E-02
909,08	-1,7897E-02
909,39	-4,4866E-03
909,69	-3,4674E-02
910,00	-3,0250E-03
910,30	1,3675E-02
910,61	1,9902E-02
910,91	3,1656E-02
911,21	4,0084E-02
911,52	-1,2578E-02
911,82	-2,6897E-02
912,13	-2,8376E-02
912,43	-6,2925E-03
912,74	-1,7312E-02
913,04	-2,2160E-02
913,34	-3,4992E-02
913,65	-4,9748E-02
913,95	1,9223E-02
914,25	-1,9656E-02
914,56	3,2955E-03
914,86	-6,6443E-03
915,17	-7,9762E-02
915,47	-1,1575E-02
915,77	5,0936E-03
916,08	-6,2013E-02
916,38	3,1974E-02
916,68	8,4555E-02
916,99	2,8606E-02
917,29	-3,4011E-03
917,59	3,6287E-02
917,90	-5,1215E-03
918,20	-2,2148E-02
918,50	6,0276E-02
918,80	2,4199E-02
919,11	-3,3154E-02
919,41	-2,8526E-02
919,71	-1,6082E-02
920,02	1,5937E-02
920,32	-3,1800E-02
920,62	7,3070E-03
920,92	4,3055E-02
921,23	6,3119E-02
921,53	-1,4781E-02
921,83	5,6791E-02
922,13	-2,9370E-02
922,44	1,3167E-02
922,74	-3,1879E-02
923,04	-4,2925E-02
923,34	-3,0205E-02
923,64	-1,3003E-02
923,95	-3,0696E-02
924,25	5,3633E-02
924,55	-1,1345E-02
924,85	-2,9181E-02
925,15	4,6437E-02
925,46	-3,1405E-02
925,76	-1,1913E-02
926,06	2,7674E-02
926,36	-3,5822E-02
926,66	-2,2132E-02
926,96	4,0523E-02
927,26	-4,3196E-02
927,57	-7,2971E-02
927,87	2,6724E-02
928,17	2,5184E-02
928,47	8,2327E-03
928,77	-1,8713E-02
929,07	2,5368E-02
929,37	4,2554E-03
929,67	-8,1519E-02
929,98	-3,2242E-02
930,28	6,5399E-03
930,58	3,6732E-02
930,88	1,0752E-02
931,18	4,3940E-03
931,48	1,3351E-02
931,78	6,5709E-02
932,08	-1,8015E-02
932,38	-2,2431E-03
932,68	-1,6014E-02
932,98	3,9311E-02
933,28	1,6193E-02
933,58	3,0481E-02
933,88	-3,0590E-02
934,18	4,8564E-02
934,48	2,3687E-03
934,78	-7,1563E-03
935,08	-2,8264E-02
935,38	2,3959E-03
935,68	-4,6939E-02
935,98	-2,2562E-02
936,28	3,4928E-02
936,58	5,9826E-02
936,88	-7,9465E-02
937,18	2,2937E-02
937,48	-5,0711E-03
937,78	-3,0778E-02
938,08	4,4311E-02
938,38	8,0398E-02
938,68	1,0145E-01
938,98	3,1485E-02
939,28	9,3440E-02
939,57	6,2480E-02
939,87	-8,1111E-03
940,17	6,0817E-02
940,47	4,5022E-02
940,77	2,3903E-02
941,07	5,7338E-02
941,37	-8,3555E-02
941,67	1,6139E-02
941,97	-7,6294E-02
942,26	-8,2937E-03
942,56	1,6716E-02
942,86	-5,6739E-03
943,16	-2,8690E-02
943,46	-4,5876E-02
943,76	-6,0229E-02
944,06	2,8593E-03
944,35	-1,1680E-01
944,65	4,5204E-02
944,95	1,4780E-02
945,25	-1,1945E-01
945,55	-2,4133E-02
945,84	-9,2755E-02
946,14	-2,1368E-02
946,44	2,6949E-02
946,74	-3,0752E-02
947,03	3,1721E-03
947,33	-9,9836E-02
947,63	-3,4586E-02
947,93	-2,8380E-02
948,23	-9,6362E-02
948,52	-2,2241E-02
948,82	-1,9339E-02
949,12	-1,4011E-01
949,41	5,5326E-02
949,71	9,9400E-03
950,01	-6,6569E-02
950,31	1,0167E-02
950,60	4,3679E-02
950,90	-2,7045E-02
951,20	1,0168E-02
951,49	-8,6159E-02
951,79	1,3748E-02
952,09	9,1796E-02
952,38	4,2709E-02
952,68	8,8823E-02
952,98	-5,4700E-02
953,27	3,9492E-02
953,57	-1,0705E-01
953,87	-8,3770E-02
954,16	-1,8280E-02
954,46	3,2626E-02
954,76	-5,9237E-02
955,05	-3,6383E-03
955,35	-6,0307E-02
955,64	4,5562E-02
955,94	-1,9429E-02
956,24	-3,0989E-02
956,53	-4,6434E-02
956,83	-1,0027E-01
957,12	1,3245E-01
957,42	0,0000E00
957,72	6,0624E-02
958,01	1,5402E-01
958,31	-4,8448E-02
958,60	0,0000E00
958,90	-1,6818E-02
959,19	-3,8663E-02
959,49	-7,5117E-02
959,78	5,0945E-02
960,08	-6,3040E-02
960,37	9,7189E-02
960,67	8,0546E-02
960,96	1,4044E-01
961,26	7,3405E-02
961,55	-4,7499E-02
961,85	-7,8162E-02
962,14	1,1296E-01
962,44	4,5616E-02
962,73	1,8111E-02
963,03	1,3020E-01
963,32	-4,9670E-02
963,62	-2,8116E-02
963,91	-3,2517E-02
964,21	1,8645E-02
964,50	1,4317E-02
964,80	-2,8714E-02
965,09	-1,1384E-01
965,38	-1,3055E-01
965,68	7,6861E-02
965,97	-1,4529E-01
966,27	9,8740E-03
966,56	7,4624E-02
966,85	-1,6187E-01
967,15	-2,1935E-01
967,44	-1,0346E-01
967,74	2,5738E-02
968,03	-1,1150E-01
968,32	1,5179E-01
968,62	4,2827E-02
968,91	-8,5507E-02
969,20	-2,1866E-01
969,50	-3,7166E-02
969,79	-1,4498E-01
970,08	1,0906E-01
970,38	-8,1978E-02
970,67	-1,7699E-01
970,96	6,6849E-02
971,26	-1,0050E-01
971,55	3,3291E-02
971,84	-2,2688E-02
972,13	1,5192E-01
972,43	-5,7487E-03
972,72	1,5071E-01
973,01	5,3679E-02
973,31	2,4196E-01
973,60	1,4691E-01
973,89	-1,1838E-02
974,18	2,2743E-01
974,48	1,2115E-01
974,77	-1,2253E-02
975,06	-4,3810E-02
975,35	-1,9056E-01
975,64	6,9597E-02
975,94	-2,1786E-01
976,23	-1,6344E-01
976,52	5,7105E-02
976,81	1,1363E-01
977,10	9,8513E-02
977,40	1,1199E-01
977,69	-6,6678E-03
977,98	4,7929E-02
978,27	1,6195E-01
978,56	3,0210E-01
978,86	1,4111E-01
979,15	-1,0384E-01
979,44	8,5205E-02
979,73	-7,1304E-03
980,02	-6,5389E-02
980,31	-2,9371E-02
980,60	-1,1756E-01
980,89	-1,8769E-01
981,19	3,8111E-02
981,48	-3,7600E-02
981,77	9,9758E-02
982,06	1,8298E-01
982,35	1,9547E-01
982,64	3,0939E-02
982,93	1,6029E-01
983,22	1,3290E-01
983,51	1,2523E-01
983,80	2,2796E-01
984,09	-1,5797E-02
984,38	1,5248E-01
984,67	2,9901E-01
984,96	2,4859E-01
985,25	-6,0503E-02
985,55	-7,6244E-02
985,84	-7,8173E-02
986,13	-9,6197E-02
986,42	1,9493E-01
986,71	-6,1215E-02
987,00	1,2642E-01
987,29	-1,1496E-01
987,58	2,0070E-01
987,86	-1,8328E-02
988,15	-9,3761E-03
988,44	-3,8006E-02
988,73	-1,5050E-01
989,02	0,0000E00
989,31	-9,7948E-03
989,60	1,7589E-01
989,89	6,5394E-02
990,18	2,2280E-01
990,47	1,3577E-01
990,76	4,1131E-01
991,05	-1,3360E-01
991,34	-5,4267E-01
991,63	-4,0428E-01
991,92	0,0000E00
992,20	6,1766E-02
992,49	-3,2520E-01
992,78	-4,4836E-01
993,07	-1,1012E-02
993,36	-1,4491E-01
993,65	4,3762E-02
993,94	2,2199E-01
994,22	-2,1184E-01
994,51	1,1306E-02
994,80	-2,2768E-02
995,09	-1,7460E-01
995,38	1,3775E-01
995,67	4,9588E-01
995,95	7,1352E-02
996,24	1,1454E-02
996,53	1,2957E-01
996,82	-1,3093E-02
997,11	-4,7669E-01
997,39	-9,3936E-02
997,68	-6,5342E-02
997,97	8,8408E-02
998,26	-2,0877E-01
998,54	-4,0855E-01
998,83	-5,7843E-01
999,12	4,9048E-01
999,41	-2,6810E-01
999,69	5,6319E-01
999,98	2,6668E-02
1000,27	2,4351E-01
1000,56	-2,8372E-01
1000,84	-2,5637E-01
1001,13	6,9176E-02
1001,42	-4,8689E-01
1001,70	-1,9491E-01
1001,99	1,9147E-01
1002,28	-1,9023E-01
1002,56	2,2505E-01
1002,85	1,8220E-01
1003,14	4,2538E-01
1003,42	2,6372E-01
1003,71	-2,8658E-01
1004,00	5,2728E-01
1004,28	3,4144E-01
1004,57	4,9067E-01
1004,86	1,8841E-01
1005,14	3,2179E-01
1005,43	3,8201E-01
1005,72	-3,9043E-01
1006,00	-8,4772E-02
1006,29	-5,5095E-02
1006,57	3,6889E-02
1006,86	-3,4483E-01
1007,15	-1,1093E-01
1007,43	-3,3380E-01
1007,72	-4,4086E-01
1008,00	4,7966E-01
1008,29	-9,3226E-02
1008,57	-7,3689E-01
1008,86	-9,6630E-02
1009,14	2,5916E-01
1009,43	-2,5672E-01
1009,71	-4,3324E-01
1010,00	-4,5744E-01
1010,29	4,5905E-01
1010,57	7,7350E-02
1010,86	-2,0788E-01
1011,14	1,0794E-01
1011,43	4,4770E-01
1011,71	2,1547E-02
1011,99	2,6414E-01
1012,28	-3,0286E-01
1012,56	4,5453E-01
1012,85	-1,3323E00
1013,13	-3,3227E-01
1013,42	-3,0686E-01
1013,70	-4,6727E-01
1013,99	-8,0666E-01
1014,27	-3,3596E-01
1014,56	-4,5157E-01
1014,84	-3,8966E-01
1015,12	-2,1654E-01
1015,41	8,2511E-01
1015,69	-4,3172E-01
1015,98	5,4689E-01
1016,26	4,1235E-01
1016,54	-4,8010E-02
1016,83	3,1335E-01
1017,11	1,1028E-01
1017,39	1,1325E-01
1017,68	-3,0644E-02
1017,96	-8,3292E-01
1018,25	3,1489E-01
1018,53	5,6739E-01
1018,81	1,8870E-01
1019,10	-3,8239E-01
1019,38	-2,8628E-01
1019,66	-3,0917E-01
1019,94	-4,2156E-01
1020,23	-7,4970E-01
1020,51	3,9042E-01
1020,79	-6,7549E-01
1021,08	-1,2035E00
1021,36	-4,5333E-01
1021,64	-3,4080E-01
1021,93	3,1779E-02
1022,21	-2,0137E-01
1022,49	-2,0137E-01
>>>>>End Processed Spectral Data<<<<<
