SpectraSuite Data File
++++++++++++++++++++++++++++++++++++
Date: Thu Apr 21 10:53:33 EEST 2016
User: mkilpela
Dark Spectrum Present: Yes
Reference Spectrum Present: No
Number of Sampled Component Spectra: 1
Spectrometers: JAZA2845
Integration Time (usec): 62883 (JAZA2845)
Spectra Averaged: 1 (JAZA2845)
Boxcar Smoothing: 0 (JAZA2845)
Correct for Electrical Dark: No (JAZA2845)
Strobe/Lamp Enabled: No (JAZA2845)
Correct for Detector Non-linearity: No (JAZA2845)
Correct for Stray Light: No (JAZA2845)
Number of Pixels in Processed Spectrum: 2048
>>>>>Begin Processed Spectral Data<<<<<
340,21	0,0000E00
340,58	0,0000E00
340,96	0,0000E00
341,33	-0,0000E00
341,70	0,0000E00
342,07	0,0000E00
342,45	0,0000E00
342,82	0,0000E00
343,19	0,0000E00
343,57	-0,0000E00
343,94	0,0000E00
344,31	0,0000E00
344,68	-0,0000E00
345,06	0,0000E00
345,43	0,0000E00
345,80	0,0000E00
346,18	0,0000E00
346,55	-0,0000E00
346,92	0,0000E00
347,29	0,0000E00
347,67	0,0000E00
348,04	0,0000E00
348,41	0,0000E00
348,78	0,0000E00
349,16	-0,0000E00
349,53	0,0000E00
349,90	0,0000E00
350,27	-4,4264E-02
350,64	-7,1051E-03
351,02	-1,8708E-02
351,39	-4,5171E-03
351,76	1,4943E-02
352,13	4,1261E-02
352,51	-1,8628E-02
352,88	8,6192E-03
353,25	-2,2957E-02
353,62	1,4114E-03
353,99	1,2569E-03
354,37	-5,9223E-02
354,74	3,9537E-03
355,11	-2,5360E-02
355,48	9,8962E-03
355,85	1,1990E-03
356,23	-3,2176E-02
356,60	2,0113E-02
356,97	5,4445E-03
357,34	-1,4521E-01
357,71	-1,6340E-02
358,08	6,9704E-03
358,46	6,7407E-02
358,83	-3,0531E-03
359,20	0,0000E00
359,57	1,3314E-02
359,94	3,1048E-03
360,31	-3,3159E-03
360,69	3,5459E-02
361,06	3,4558E-03
361,43	1,1760E-03
361,80	-1,7693E-03
362,17	1,7007E-02
362,54	1,9168E-02
362,91	-1,1112E-02
363,29	4,8343E-03
363,66	5,0898E-02
364,03	1,0895E-02
364,40	5,1637E-02
364,77	-1,8432E-02
365,14	-3,2500E-02
365,51	-2,3081E-03
365,88	-1,7017E-02
366,26	4,8684E-03
366,63	-3,1595E-03
367,00	-1,6503E-02
367,37	1,5386E-02
367,74	-1,1070E-02
368,11	-6,5100E-03
368,48	4,6730E-03
368,85	-3,8363E-03
369,22	-2,0500E-02
369,59	1,0149E-02
369,97	-1,5594E-03
370,34	4,2618E-03
370,71	-4,8639E-03
371,08	2,4799E-03
371,45	-2,3593E-02
371,82	-3,0771E-03
372,19	4,8158E-03
372,56	1,9838E-02
372,93	-4,3417E-03
373,30	-2,1962E-02
373,67	-7,5338E-03
374,04	2,1887E-02
374,41	6,4181E-03
374,78	2,3575E-03
375,15	6,1074E-03
375,52	-1,4539E-03
375,89	4,5383E-03
376,26	2,4817E-02
376,63	3,6759E-03
377,00	2,2546E-02
377,38	7,6500E-03
377,75	2,3135E-02
378,12	4,8754E-02
378,49	2,2451E-02
378,86	4,9286E-03
379,23	-4,5772E-03
379,60	-7,6487E-03
379,97	5,5152E-03
380,34	-1,5291E-02
380,71	-9,2752E-03
381,08	-2,3236E-02
381,45	1,3357E-02
381,82	1,7903E-02
382,19	-1,6281E-02
382,55	1,1273E-02
382,92	6,8539E-04
383,29	2,0563E-03
383,66	5,9417E-03
384,03	1,5252E-02
384,40	8,1905E-03
384,77	1,0589E-02
385,14	7,2720E-03
385,51	1,5470E-02
385,88	-3,0670E-03
386,25	0,0000E00
386,62	4,5190E-03
386,99	1,2769E-03
387,36	-3,0320E-03
387,73	8,0839E-03
388,10	-6,3617E-03
388,47	5,4446E-03
388,84	-1,0191E-03
389,21	-3,5166E-03
389,58	-7,3739E-03
389,94	1,5943E-02
390,31	-3,0441E-03
390,68	3,3817E-03
391,05	-1,4033E-02
391,42	1,1821E-02
391,79	-8,4101E-03
392,16	-5,7846E-03
392,53	1,6762E-02
392,90	-9,9179E-03
393,27	5,2632E-03
393,63	-4,3634E-03
394,00	1,1278E-02
394,37	9,1268E-03
394,74	2,0937E-02
395,11	7,7321E-03
395,48	3,6248E-03
395,85	2,0270E-02
396,22	-2,9260E-03
396,58	-2,1085E-03
396,95	6,5386E-03
397,32	9,2896E-03
397,69	-6,9815E-03
398,06	7,4898E-03
398,43	-3,4966E-03
398,80	-2,7351E-03
399,16	5,8068E-03
399,53	-4,6761E-03
399,90	-3,5065E-04
400,27	7,8124E-03
400,64	1,5291E-02
401,01	-1,6639E-03
401,37	3,3644E-03
401,74	7,9959E-03
402,11	4,3912E-03
402,48	9,8707E-03
402,85	2,0833E-02
403,22	9,2905E-03
403,58	2,1521E-03
403,95	1,3867E-02
404,32	8,0399E-03
404,69	0,0000E00
405,06	6,9175E-03
405,42	1,1715E-02
405,79	1,2466E-02
406,16	1,3379E-02
406,53	8,3609E-03
406,89	2,2277E-03
407,26	8,7048E-03
407,63	1,2567E-02
408,00	4,1905E-03
408,37	6,2352E-03
408,73	-2,6349E-03
409,10	2,3194E-03
409,47	-7,8591E-03
409,84	1,3415E-02
410,20	1,7593E-02
410,57	3,6311E-03
410,94	0,0000E00
411,31	5,1930E-03
411,67	1,6745E-02
412,04	-3,1110E-03
412,41	-1,5296E-03
412,77	3,7456E-03
413,14	2,6342E-03
413,51	1,3546E-02
413,88	-3,2273E-03
414,24	2,7731E-03
414,61	8,0743E-03
414,98	8,6392E-03
415,34	1,4293E-02
415,71	2,5176E-02
416,08	1,1344E-02
416,45	1,0247E-02
416,81	1,5647E-02
417,18	1,2329E-02
417,55	2,0558E-02
417,91	1,4657E-02
418,28	1,4163E-02
418,65	6,8614E-03
419,01	1,6256E-03
419,38	5,4706E-03
419,75	1,2098E-02
420,11	1,1362E-02
420,48	2,0279E-02
420,85	2,3978E-02
421,21	1,0607E-02
421,58	1,8484E-02
421,95	2,3603E-02
422,31	1,6965E-02
422,68	2,7595E-02
423,05	2,7219E-02
423,41	2,2717E-02
423,78	3,8178E-02
424,15	2,6200E-02
424,51	3,8660E-02
424,88	3,6053E-02
425,24	3,9562E-02
425,61	4,0751E-02
425,98	5,0385E-02
426,34	3,4367E-02
426,71	4,7244E-02
427,07	5,5508E-02
427,44	5,5749E-02
427,81	7,0107E-02
428,17	5,8785E-02
428,54	6,4388E-02
428,90	8,2912E-02
429,27	7,0911E-02
429,64	9,5529E-02
430,00	8,7742E-02
430,37	9,2658E-02
430,73	1,0385E-01
431,10	1,3091E-01
431,46	1,1146E-01
431,83	1,1506E-01
432,20	1,4372E-01
432,56	1,5066E-01
432,93	1,5605E-01
433,29	1,8545E-01
433,66	1,8269E-01
434,02	1,8028E-01
434,39	2,0775E-01
434,75	2,3271E-01
435,12	2,2061E-01
435,49	2,5496E-01
435,85	2,6768E-01
436,22	2,7618E-01
436,58	3,1764E-01
436,95	3,1874E-01
437,31	3,3979E-01
437,68	3,7258E-01
438,04	3,9013E-01
438,41	4,3768E-01
438,77	4,5542E-01
439,14	4,8087E-01
439,50	4,9312E-01
439,87	5,3814E-01
440,23	5,6107E-01
440,60	5,9960E-01
440,96	6,4702E-01
441,33	6,7919E-01
441,69	7,4014E-01
442,06	7,8535E-01
442,42	8,3010E-01
442,78	8,7257E-01
443,15	9,5819E-01
443,51	1,0001E00
443,88	9,9716E-01
444,24	1,0956E00
444,61	1,1944E00
444,97	1,2774E00
445,34	1,2963E00
445,70	1,4013E00
446,07	1,5062E00
446,43	1,5368E00
446,79	1,6005E00
447,16	1,7331E00
447,52	1,8277E00
447,89	1,9462E00
448,25	2,0020E00
448,62	2,0617E00
448,98	2,2780E00
449,34	2,3407E00
449,71	2,4329E00
450,07	2,6343E00
450,44	2,6765E00
450,80	2,6623E00
451,16	2,8835E00
451,53	2,9414E00
451,89	3,1715E00
452,25	3,1788E00
452,62	3,3592E00
452,98	3,3628E00
453,35	3,5702E00
453,71	3,8407E00
454,07	3,8933E00
454,44	3,8932E00
454,80	3,9093E00
455,16	4,0318E00
455,53	4,0721E00
455,89	4,2851E00
456,25	4,2808E00
456,62	4,3619E00
456,98	4,5014E00
457,34	4,4882E00
457,71	4,5328E00
458,07	4,5903E00
458,43	4,8262E00
458,80	4,7718E00
459,16	4,6775E00
459,52	4,6123E00
459,89	4,6626E00
460,25	4,5324E00
460,61	4,5784E00
460,98	4,6386E00
461,34	4,5714E00
461,70	4,5472E00
462,07	4,5097E00
462,43	4,3337E00
462,79	4,4268E00
463,15	4,3349E00
463,52	4,1736E00
463,88	4,2576E00
464,24	4,2413E00
464,61	3,9670E00
464,97	4,0149E00
465,33	3,9037E00
465,69	3,8414E00
466,06	3,7103E00
466,42	3,5517E00
466,78	3,5240E00
467,14	3,4526E00
467,51	3,3819E00
467,87	3,2128E00
468,23	3,1689E00
468,59	3,0500E00
468,95	2,9084E00
469,32	2,8869E00
469,68	2,7161E00
470,04	2,6649E00
470,40	2,6439E00
470,77	2,5106E00
471,13	2,4932E00
471,49	2,4082E00
471,85	2,2994E00
472,21	2,2081E00
472,58	2,1821E00
472,94	2,0832E00
473,30	1,9771E00
473,66	1,9934E00
474,02	1,8806E00
474,39	1,8967E00
474,75	1,7820E00
475,11	1,6652E00
475,47	1,6356E00
475,83	1,5973E00
476,19	1,4934E00
476,56	1,4801E00
476,92	1,4648E00
477,28	1,3874E00
477,64	1,3605E00
478,00	1,2813E00
478,36	1,2344E00
478,72	1,1688E00
479,09	1,1429E00
479,45	1,1193E00
479,81	1,0989E00
480,17	1,0530E00
480,53	1,0030E00
480,89	1,0068E00
481,25	9,4778E-01
481,61	9,0215E-01
481,97	8,9101E-01
482,34	8,3368E-01
482,70	8,2423E-01
483,06	7,8023E-01
483,42	7,6405E-01
483,78	7,2778E-01
484,14	6,8930E-01
484,50	6,6998E-01
484,86	6,4689E-01
485,22	6,3775E-01
485,58	6,0289E-01
485,94	5,8224E-01
486,31	5,5958E-01
486,67	5,3376E-01
487,03	5,1722E-01
487,39	5,0793E-01
487,75	4,7887E-01
488,11	4,6765E-01
488,47	4,4324E-01
488,83	4,3416E-01
489,19	4,1987E-01
489,55	4,0696E-01
489,91	3,8565E-01
490,27	3,7493E-01
490,63	3,6057E-01
490,99	3,4355E-01
491,35	3,3284E-01
491,71	3,2180E-01
492,07	3,1118E-01
492,43	2,9957E-01
492,79	2,8900E-01
493,15	2,7290E-01
493,51	2,6777E-01
493,87	2,6380E-01
494,23	2,5553E-01
494,59	2,3936E-01
494,95	2,3829E-01
495,31	2,3365E-01
495,67	2,1693E-01
496,03	2,1148E-01
496,39	2,0573E-01
496,75	2,0247E-01
497,11	1,9279E-01
497,47	1,8971E-01
497,83	1,7894E-01
498,19	1,7935E-01
498,55	1,6631E-01
498,91	1,6076E-01
499,27	1,5674E-01
499,63	1,5405E-01
499,98	1,4656E-01
500,34	1,3684E-01
500,70	1,3049E-01
501,06	1,2748E-01
501,42	1,2714E-01
501,78	1,2330E-01
502,14	1,1942E-01
502,50	1,1283E-01
502,86	1,1066E-01
503,22	1,0674E-01
503,58	1,0398E-01
503,94	1,0400E-01
504,29	9,9459E-02
504,65	9,3330E-02
505,01	8,9975E-02
505,37	9,0061E-02
505,73	8,5751E-02
506,09	8,2949E-02
506,45	7,6255E-02
506,81	7,9179E-02
507,16	7,0799E-02
507,52	6,8154E-02
507,88	6,6044E-02
508,24	6,4941E-02
508,60	6,3017E-02
508,96	6,1936E-02
509,32	5,9861E-02
509,67	5,5363E-02
510,03	5,5553E-02
510,39	5,3597E-02
510,75	5,0709E-02
511,11	4,9890E-02
511,47	4,6719E-02
511,82	4,8855E-02
512,18	4,7574E-02
512,54	4,5206E-02
512,90	4,5511E-02
513,26	4,4299E-02
513,61	4,2914E-02
513,97	3,8352E-02
514,33	3,9182E-02
514,69	3,6609E-02
515,05	3,9214E-02
515,40	3,5823E-02
515,76	3,3983E-02
516,12	3,5407E-02
516,48	3,0990E-02
516,83	3,4622E-02
517,19	3,0868E-02
517,55	2,8590E-02
517,91	2,9402E-02
518,26	2,7580E-02
518,62	2,8472E-02
518,98	2,6910E-02
519,34	2,4898E-02
519,69	2,3045E-02
520,05	2,2584E-02
520,41	2,1918E-02
520,77	2,2172E-02
521,12	2,2627E-02
521,48	2,1761E-02
521,84	2,0314E-02
522,19	2,1027E-02
522,55	1,8503E-02
522,91	1,8796E-02
523,27	2,0474E-02
523,62	1,9102E-02
523,98	1,6776E-02
524,34	1,9882E-02
524,69	1,4778E-02
525,05	1,4214E-02
525,41	1,3762E-02
525,76	1,2218E-02
526,12	1,2544E-02
526,48	1,1439E-02
526,83	1,4060E-02
527,19	1,4734E-02
527,55	1,3184E-02
527,90	1,1254E-02
528,26	1,2169E-02
528,62	1,2028E-02
528,97	1,0323E-02
529,33	1,0348E-02
529,69	9,2769E-03
530,04	1,1409E-02
530,40	9,9052E-03
530,76	9,5803E-03
531,11	1,1162E-02
531,47	1,3520E-02
531,82	1,1443E-02
532,18	9,9448E-03
532,54	9,8399E-03
532,89	8,9809E-03
533,25	1,0449E-02
533,60	7,7333E-03
533,96	7,9045E-03
534,32	6,3929E-03
534,67	7,2544E-03
535,03	7,9503E-03
535,38	8,5610E-03
535,74	7,9539E-03
536,10	4,7239E-03
536,45	6,0681E-03
536,81	6,8060E-03
537,16	8,3732E-03
537,52	6,2818E-03
537,87	5,7679E-03
538,23	6,3326E-03
538,58	4,8331E-03
538,94	7,6971E-03
539,30	6,1676E-03
539,65	6,7554E-03
540,01	7,2226E-03
540,36	5,4692E-03
540,72	4,9013E-03
541,07	5,4684E-03
541,43	1,7029E-03
541,78	3,0888E-03
542,14	4,2006E-03
542,49	5,1413E-03
542,85	4,0839E-03
543,20	7,1375E-03
543,56	5,6194E-03
543,91	2,9804E-03
544,27	4,3731E-03
544,62	7,7036E-03
544,98	5,0861E-03
545,33	2,4830E-03
545,69	1,3307E-03
546,04	3,7645E-03
546,40	5,4892E-03
546,75	3,5727E-03
547,10	4,5627E-03
547,46	4,9258E-03
547,81	1,9294E-03
548,17	3,7215E-03
548,52	3,0356E-03
548,88	2,1029E-03
549,23	4,0156E-03
549,59	1,9030E-03
549,94	4,1510E-03
550,29	3,7763E-03
550,65	2,2446E-03
551,00	4,7269E-03
551,36	1,2701E-03
551,71	1,4795E-03
552,06	1,9878E-03
552,42	2,1788E-03
552,77	1,2692E-03
553,13	1,1300E-03
553,48	5,6259E-04
553,83	8,5384E-04
554,19	1,3282E-03
554,54	2,8369E-03
554,90	1,9789E-03
555,25	3,3247E-03
555,60	2,9488E-03
555,96	3,6742E-03
556,31	2,0570E-03
556,66	3,5647E-03
557,02	3,3154E-03
557,37	3,2829E-03
557,72	1,4976E-03
558,08	2,8851E-03
558,43	7,1385E-05
558,79	2,1464E-03
559,14	1,1404E-03
559,49	2,3551E-03
559,85	2,2724E-03
560,20	2,0134E-03
560,55	3,2925E-03
560,90	1,4260E-03
561,26	2,3602E-03
561,61	8,6011E-04
561,96	1,0860E-03
562,32	2,5382E-03
562,67	2,9034E-04
563,02	1,0899E-03
563,38	2,7355E-03
563,73	1,4531E-03
564,08	3,2166E-03
564,43	2,1841E-03
564,79	5,1961E-03
565,14	3,1748E-03
565,49	2,9532E-03
565,84	5,5449E-03
566,20	2,3039E-03
566,55	-2,2038E-04
566,90	2,0959E-03
567,25	5,8949E-04
567,61	1,7730E-03
567,96	2,6792E-03
568,31	1,0424E-03
568,66	2,4481E-03
569,02	2,7612E-03
569,37	2,0406E-03
569,72	1,0530E-03
570,07	-3,0074E-04
570,42	1,7360E-03
570,78	2,5145E-03
571,13	2,8026E-03
571,48	2,5077E-03
571,83	3,4258E-03
572,18	4,5548E-04
572,54	-4,5549E-04
572,89	-2,2883E-04
573,24	1,5154E-04
573,59	5,7124E-03
573,94	3,3228E-03
574,30	1,4565E-03
574,65	3,1529E-03
575,00	1,2226E-03
575,35	1,7721E-03
575,70	1,5417E-03
576,05	1,3049E-03
576,40	4,0341E-03
576,76	3,8530E-03
577,11	-1,0759E-03
577,46	-7,7226E-04
577,81	-8,5111E-04
578,16	-1,6292E-03
578,51	-5,4692E-04
578,86	-4,6587E-04
579,21	-1,9416E-03
579,57	-1,0211E-03
579,92	-1,7090E-03
580,27	-3,1236E-04
580,62	2,2815E-03
580,97	1,6441E-03
581,32	-1,9622E-03
581,67	-4,7131E-04
582,02	2,9185E-03
582,37	7,9039E-04
582,72	1,2621E-03
583,08	-3,1741E-04
583,43	1,8095E-03
583,78	2,7625E-03
584,13	2,1287E-03
584,48	5,5512E-04
584,83	1,5884E-03
585,18	1,1898E-03
585,53	3,1679E-04
585,88	6,2962E-04
586,23	0,0000E00
586,58	-6,3653E-04
586,93	1,0270E-03
587,28	-2,1565E-03
587,63	-2,3716E-04
587,98	9,5694E-04
588,33	2,4678E-03
588,68	8,0672E-04
589,03	2,3068E-03
589,38	4,8117E-04
589,73	2,8930E-03
590,08	3,2090E-03
590,43	2,4973E-03
590,78	2,7993E-03
591,13	0,0000E00
591,48	8,0029E-04
591,83	-7,9957E-04
592,18	2,3281E-03
592,53	2,4088E-03
592,88	3,3608E-03
593,23	2,1021E-03
593,58	1,7734E-03
593,93	3,8169E-03
594,28	1,2071E-03
594,63	1,3829E-03
594,98	2,8956E-03
595,33	-1,2118E-03
595,68	-4,0704E-04
596,02	-2,1947E-03
596,37	2,9970E-03
596,72	-8,1828E-05
597,07	1,1383E-03
597,42	6,5675E-04
597,77	2,4439E-04
598,12	3,6812E-03
598,47	-1,4051E-03
598,82	1,2268E-03
599,17	-5,7726E-04
599,52	-8,2814E-05
599,86	2,4666E-04
600,21	-1,4086E-03
600,56	7,5322E-04
600,91	2,5799E-03
601,26	9,1301E-04
601,61	3,4783E-03
601,96	-3,3380E-04
602,30	3,9780E-03
602,65	1,6749E-04
603,00	1,7005E-03
603,35	6,7169E-04
603,70	-3,3931E-04
604,05	-1,6991E-04
604,40	8,4774E-04
604,74	-2,0335E-03
605,09	-1,0297E-03
605,44	1,5416E-03
605,79	1,8018E-03
606,14	8,5885E-05
606,48	-2,5899E-04
606,83	2,8422E-03
607,18	-2,3434E-03
607,53	2,1745E-03
607,88	3,2169E-03
608,22	-4,3477E-04
608,57	1,7404E-04
608,92	7,9034E-04
609,27	2,2881E-03
609,62	7,0408E-04
609,96	-1,1440E-03
610,31	3,7106E-03
610,66	5,3225E-04
611,01	7,1019E-04
611,35	-8,0243E-04
611,70	1,8829E-03
612,05	2,4202E-03
612,40	4,2336E-03
612,74	2,0787E-03
613,09	3,6081E-04
613,44	-1,1744E-03
613,79	1,0925E-03
614,13	-2,0123E-03
614,48	-3,3515E-03
614,83	2,3021E-03
615,17	2,7693E-03
615,52	1,0135E-03
615,87	7,3700E-04
616,22	1,3796E-03
616,56	1,1995E-03
616,91	4,9349E-03
617,26	-3,7342E-04
617,60	-7,4300E-04
617,95	2,8952E-03
618,30	-4,7106E-04
618,64	-1,4085E-03
618,99	5,6280E-04
619,34	9,5215E-05
619,68	1,4128E-03
620,03	-1,8906E-03
620,38	-2,8343E-04
620,72	-3,7803E-04
621,07	2,6506E-03
621,42	2,7770E-03
621,76	-2,8493E-04
622,11	1,4304E-03
622,45	1,1634E-03
622,80	-7,6852E-04
623,15	9,7470E-05
623,49	4,8356E-04
623,84	2,1408E-03
624,18	-9,6970E-05
624,53	-3,8985E-03
624,88	-1,7545E-03
625,22	-1,0791E-03
625,57	9,7913E-05
625,91	3,1717E-03
626,26	-1,8894E-03
626,61	2,7658E-03
626,95	1,6852E-03
627,30	5,1673E-03
627,64	0,0000E00
627,99	2,1018E-03
628,33	-9,9323E-04
628,68	1,5025E-03
629,03	-9,0412E-04
629,37	-1,4058E-03
629,72	1,3151E-03
630,06	-1,0018E-03
630,41	-1,2203E-03
630,75	7,0950E-04
631,10	-1,8270E-03
631,44	-2,2278E-03
631,79	-1,1250E-03
632,13	-3,0520E-04
632,48	-1,4294E-03
632,82	9,1790E-04
633,17	-1,4353E-03
633,51	4,2519E-03
633,86	-3,5052E-03
634,20	-2,0731E-04
634,55	3,5123E-03
634,89	5,1970E-04
635,24	1,5650E-03
635,58	8,3581E-04
635,93	-4,2833E-03
636,27	2,2906E-03
636,62	6,3098E-04
636,96	-2,7235E-03
637,30	1,1596E-03
637,65	-1,3767E-03
637,99	2,5167E-03
638,34	-6,3521E-04
638,68	-2,3500E-03
639,03	2,9641E-03
639,37	-3,2104E-03
639,71	1,1679E-03
640,06	-7,5347E-04
640,40	1,0689E-03
640,75	-2,1627E-04
641,09	4,5009E-03
641,44	2,6831E-03
641,78	5,7798E-03
642,12	3,3514E-03
642,47	3,5858E-03
642,81	6,4590E-04
643,15	1,7494E-03
643,50	3,9306E-03
643,84	2,2825E-03
644,19	2,8547E-03
644,53	1,6443E-03
644,87	4,4895E-03
645,22	-1,4288E-03
645,56	-1,5428E-03
645,90	-5,5341E-04
646,25	1,7658E-03
646,59	1,6642E-03
646,93	1,2240E-03
647,28	-1,4420E-03
647,62	2,8969E-03
647,96	2,2449E-04
648,31	1,7961E-03
648,65	-3,3664E-03
648,99	0,0000E00
649,34	-2,9374E-03
649,68	-1,4695E-03
650,02	4,5311E-03
650,36	1,1313E-03
650,71	-1,4736E-03
651,05	-1,3691E-03
651,39	-1,2584E-03
651,74	1,9315E-03
652,08	-1,6109E-03
652,42	-6,8565E-04
652,76	4,6389E-03
653,11	-1,2760E-03
653,45	1,8601E-03
653,79	-1,1679E-03
654,13	-4,6427E-04
654,48	3,7256E-03
654,82	-2,3346E-04
655,16	2,3565E-04
655,50	1,6562E-03
655,85	-8,3317E-04
656,19	-1,5242E-03
656,53	-3,5686E-03
656,87	3,0876E-03
657,21	-5,9628E-04
657,56	-8,3624E-04
657,90	-1,5495E-03
658,24	-7,2202E-04
658,58	-3,3776E-03
658,92	-3,5853E-04
659,27	-7,1906E-04
659,61	-2,2928E-03
659,95	-8,4464E-04
660,29	-3,3994E-03
660,63	-9,7818E-04
660,97	-7,2800E-04
661,32	1,2249E-03
661,66	-7,3340E-04
662,00	-1,8358E-03
662,34	4,9432E-04
662,68	-5,9594E-03
663,02	-9,8768E-04
663,37	6,6511E-03
663,71	-3,4984E-03
664,05	2,7405E-03
664,39	4,3771E-03
664,73	-4,6210E-03
665,07	-2,2943E-03
665,41	5,5363E-03
665,75	1,1348E-03
666,09	-1,2688E-04
666,44	-1,2571E-04
666,78	3,1918E-03
667,12	1,8009E-03
667,46	1,7876E-03
667,80	1,2926E-04
668,14	-3,6209E-03
668,48	3,8678E-04
668,82	-2,0782E-03
669,16	1,8171E-03
669,50	-1,0406E-03
669,84	2,7446E-03
670,18	1,3198E-03
670,52	5,8178E-03
670,86	1,5951E-03
671,20	2,2633E-03
671,54	1,8821E-03
671,88	4,0296E-04
672,22	-2,3804E-03
672,57	-2,5481E-03
672,91	1,4868E-03
673,25	3,5566E-03
673,59	4,4172E-03
673,93	-6,7899E-04
674,27	1,3693E-04
674,61	2,9026E-03
674,95	2,7453E-04
675,28	2,6211E-03
675,62	8,3028E-04
675,96	8,2953E-04
676,30	9,6466E-04
676,64	-1,8197E-03
676,98	-5,5581E-04
677,32	4,6034E-03
677,66	-2,8159E-03
678,00	3,9108E-03
678,34	-4,2067E-04
678,68	-1,5593E-03
679,02	2,6952E-03
679,36	3,9941E-03
679,70	2,2943E-03
680,04	-5,7093E-04
680,38	-1,5853E-03
680,72	-4,3145E-04
681,06	-1,2951E-03
681,39	-2,7547E-03
681,73	-1,4430E-04
682,07	1,8902E-03
682,41	3,0547E-03
682,75	2,1937E-03
683,09	-5,1190E-03
683,43	2,0684E-03
683,77	4,4566E-04
684,11	2,5019E-03
684,44	-2,6793E-03
684,78	7,4466E-04
685,12	2,7005E-03
685,46	1,6481E-03
685,80	3,7607E-03
686,14	2,5500E-03
686,48	1,0606E-03
686,81	9,9052E-03
687,15	9,8810E-03
687,49	3,3617E-03
687,83	-3,1678E-03
688,17	1,5444E-04
688,51	-1,6999E-03
688,84	-9,3077E-04
689,18	2,0120E-03
689,52	0,0000E00
689,86	3,5729E-03
690,20	-2,3328E-03
690,53	6,2369E-04
690,87	-1,7163E-03
691,21	3,4698E-03
691,55	1,8950E-03
691,88	1,7512E-03
692,22	4,3172E-03
692,56	1,7484E-03
692,90	-1,1153E-03
693,23	4,1606E-03
693,57	-4,8134E-04
693,91	6,2704E-03
694,25	4,6680E-03
694,58	2,0931E-03
694,92	3,8720E-03
695,26	0,0000E00
695,60	-5,3911E-03
695,93	-3,2486E-04
696,27	-3,0910E-03
696,61	4,4345E-03
696,94	4,4451E-03
697,28	3,6342E-03
697,62	-2,5052E-03
697,96	0,0000E00
698,29	3,3089E-04
698,63	4,2902E-03
698,97	3,8517E-03
699,30	-2,6708E-03
699,64	-6,6571E-04
699,98	-4,3682E-03
700,31	2,1762E-03
700,65	-2,3426E-03
700,99	3,5693E-03
701,32	4,4070E-03
701,66	0,0000E00
702,00	-3,4062E-03
702,33	3,7283E-03
702,67	3,7206E-03
703,00	7,3344E-03
703,34	2,3828E-03
703,68	-1,0298E-03
704,01	-1,9103E-03
704,35	1,5658E-03
704,69	-5,3658E-03
705,02	-7,2940E-03
705,36	-4,6590E-03
705,69	1,3931E-03
706,03	-7,7153E-03
706,36	-5,2109E-03
706,70	3,5033E-04
707,04	8,7830E-04
707,37	2,2694E-03
707,71	-1,2570E-02
708,04	-5,6492E-03
708,38	-4,2058E-03
708,71	-2,1113E-03
709,05	-2,1394E-03
709,39	3,5600E-04
709,72	-3,5870E-04
710,06	-2,8541E-03
710,39	1,6205E-03
710,73	3,0376E-03
711,06	6,8580E-03
711,40	-9,4071E-03
711,73	1,2605E-03
712,07	3,9622E-03
712,40	1,9853E-03
712,74	1,4428E-03
713,07	1,2722E-03
713,41	3,2813E-03
713,74	2,5535E-03
714,08	2,2029E-03
714,41	0,0000E00
714,75	-1,1077E-03
715,08	4,4294E-03
715,42	0,0000E00
715,75	-9,6628E-03
716,08	3,1585E-03
716,42	-6,3536E-03
716,75	1,8633E-03
717,09	-3,7438E-03
717,42	4,7027E-03
717,76	8,4129E-03
718,09	8,0514E-03
718,43	6,6354E-03
718,76	2,6321E-03
719,09	4,8916E-03
719,43	2,2813E-03
719,76	-5,1654E-03
720,10	4,0244E-03
720,43	2,4785E-03
720,76	-1,9122E-03
721,10	-1,8954E-04
721,43	1,9103E-03
721,76	-2,4895E-03
722,10	5,7766E-03
722,43	6,9876E-03
722,77	-2,1368E-03
723,10	1,9475E-04
723,43	-3,9077E-04
723,77	6,4844E-03
724,10	8,6327E-03
724,43	2,7323E-03
724,77	1,3717E-03
725,10	9,9215E-04
725,43	-3,9186E-04
725,77	7,9046E-04
726,10	1,9789E-03
726,43	0,0000E00
726,77	-6,2369E-03
727,10	3,2405E-03
727,43	6,6299E-03
727,77	6,0439E-03
728,10	6,8826E-03
728,43	6,6189E-03
728,76	-7,5171E-03
729,10	4,0866E-04
729,43	-4,0234E-04
729,76	-3,8741E-03
730,09	1,2453E-03
730,43	3,4866E-03
730,76	-5,5359E-03
731,09	2,2631E-03
731,42	-2,2697E-03
731,76	4,1387E-04
732,09	-2,7242E-03
732,42	2,0815E-03
732,75	-1,6687E-03
733,09	-6,3015E-04
733,42	-2,1217E-03
733,75	1,2593E-03
734,08	-9,1067E-03
734,41	2,1326E-04
734,75	2,9583E-03
735,08	1,2739E-03
735,41	1,0758E-03
735,74	4,0999E-03
736,07	2,3912E-03
736,41	-8,7570E-04
736,74	-8,4885E-03
737,07	-1,5219E-03
737,40	4,3682E-04
737,73	2,3932E-03
738,06	2,2103E-03
738,40	1,7466E-03
738,73	0,0000E00
739,06	6,0242E-03
739,39	3,1113E-03
739,72	6,4739E-03
740,05	4,2183E-03
740,38	-3,6201E-03
740,72	-3,8313E-03
741,05	3,8552E-03
741,38	2,2751E-04
741,71	8,6881E-03
742,04	7,5497E-03
742,37	3,9356E-03
742,70	5,7685E-03
743,03	9,2238E-04
743,36	6,9581E-03
743,69	-4,6723E-04
744,02	3,5112E-03
744,36	-2,8113E-03
744,69	6,3235E-03
745,02	-5,1673E-03
745,35	1,3674E-02
745,68	4,9946E-03
746,01	1,2324E-02
746,34	2,1426E-03
746,67	-4,8485E-03
747,00	3,6108E-03
747,33	-6,3424E-03
747,66	1,4633E-03
747,99	-2,9444E-03
748,32	0,0000E00
748,65	0,0000E00
748,98	-7,3584E-03
749,31	1,2352E-03
749,64	-7,4229E-04
749,97	1,0709E-02
750,30	2,9878E-03
750,63	-7,5695E-04
750,96	6,5800E-03
751,29	2,5548E-04
751,62	9,0946E-03
751,95	7,6769E-04
752,28	3,3305E-03
752,61	7,1857E-03
752,94	2,5892E-04
753,27	-5,1957E-04
753,60	1,2967E-03
753,92	1,8204E-03
754,25	6,3020E-03
754,58	-6,6224E-03
754,91	-3,9602E-03
755,24	-5,2713E-04
755,57	-2,6587E-03
755,90	1,3336E-03
756,23	8,0176E-04
756,56	2,6711E-03
756,89	-4,9140E-03
757,22	1,8801E-03
757,54	-8,0811E-03
757,87	-3,0018E-03
758,20	5,1704E-03
758,53	-1,6449E-03
758,86	-5,1856E-03
759,19	0,0000E00
759,52	-3,0496E-03
759,84	-1,3982E-03
760,17	1,6795E-03
760,50	3,9130E-03
760,83	-8,4254E-04
761,16	5,7865E-03
761,49	-7,1479E-03
761,81	-3,9789E-03
762,14	5,7722E-04
762,47	8,3562E-03
762,80	3,1624E-03
763,13	-4,0608E-03
763,45	-2,9185E-03
763,78	1,4480E-03
764,11	4,3741E-03
764,44	-3,5163E-03
764,77	1,4814E-03
765,09	8,2092E-03
765,42	5,6350E-03
765,75	5,3658E-03
766,08	2,3943E-03
766,40	1,0479E-02
766,73	4,2325E-03
767,06	-2,3885E-03
767,39	-3,3338E-03
767,71	4,2476E-03
768,04	1,1524E-02
768,37	4,6098E-03
768,70	1,5343E-03
769,02	-1,8588E-03
769,35	-2,1806E-03
769,68	1,5541E-03
770,00	-1,0562E-02
770,33	-5,2997E-03
770,66	1,2566E-03
770,99	3,1689E-03
771,31	6,3184E-04
771,64	-2,8730E-03
771,97	-6,3674E-03
772,29	-6,1441E-03
772,62	-2,2491E-03
772,95	3,8866E-03
773,27	4,5913E-03
773,60	3,8960E-03
773,93	1,9452E-03
774,25	-5,1697E-03
774,58	7,9114E-03
774,90	-4,3274E-03
775,23	3,6716E-03
775,56	2,6910E-03
775,88	-6,6996E-04
776,21	3,3402E-03
776,54	-1,0385E-02
776,86	-2,6848E-03
777,19	-1,0495E-02
777,51	1,2935E-02
777,84	9,1385E-03
778,16	-7,8704E-03
778,49	-9,2927E-03
778,82	-3,0780E-03
779,14	-6,5023E-03
779,47	5,5372E-03
779,79	-1,3914E-03
780,12	6,6640E-03
780,44	-8,7341E-03
780,77	-3,2232E-03
781,10	-5,9965E-03
781,42	3,5264E-04
781,75	7,4763E-03
782,07	-5,4137E-03
782,40	3,9548E-03
782,72	-1,1202E-02
783,05	-5,4470E-03
783,37	-7,7082E-03
783,70	7,7644E-03
784,02	2,5510E-03
784,35	-5,4743E-03
784,67	1,4765E-03
785,00	-1,1144E-02
785,32	-7,4905E-03
785,65	4,8459E-03
785,97	-7,9031E-03
786,30	-4,1572E-03
786,62	-3,3644E-03
786,94	-5,2956E-03
787,27	1,7092E-02
787,59	3,4768E-03
787,92	-8,7402E-03
788,24	-3,7287E-03
788,57	-7,7056E-04
788,89	6,9020E-03
789,22	-4,9847E-03
789,54	3,0287E-03
789,86	-9,1644E-03
790,19	5,8239E-03
790,51	6,4708E-03
790,84	3,8585E-04
791,16	4,2616E-03
791,48	3,8702E-03
791,81	-8,1201E-03
792,13	8,1074E-03
792,45	1,9546E-02
792,78	1,0400E-02
793,10	8,0640E-03
793,43	-3,8364E-03
793,75	1,0490E-02
794,07	-1,0126E-02
794,40	0,0000E00
794,72	-1,2795E-02
795,04	5,7925E-03
795,37	-4,2098E-03
795,69	-6,1812E-03
796,01	0,0000E00
796,34	5,7373E-03
796,66	6,1858E-03
796,98	-6,1132E-03
797,30	-1,6257E-02
797,63	5,3484E-03
797,95	0,0000E00
798,27	-3,8179E-04
798,60	-7,1691E-03
798,92	-3,8471E-04
799,24	-4,1644E-03
799,56	1,5169E-03
799,89	-7,6480E-04
800,21	5,7074E-03
800,53	2,1544E-02
800,85	1,1429E-02
801,18	3,7965E-03
801,50	-7,6659E-04
801,82	-2,6678E-03
802,14	2,3123E-03
802,47	-2,5471E-02
802,79	-9,5483E-03
803,11	-1,5396E-03
803,43	-1,2560E-02
803,75	-6,1557E-03
804,08	-2,1360E-02
804,40	-1,0404E-02
804,72	-6,8540E-03
805,04	-1,2806E-02
805,36	3,8726E-04
805,69	1,3530E-02
806,01	-2,3056E-03
806,33	1,8333E-02
806,65	7,8097E-04
806,97	2,7427E-03
807,29	-2,3517E-03
807,62	1,4665E-02
807,94	3,9153E-04
808,26	1,3321E-02
808,58	4,7563E-03
808,90	4,7838E-03
809,22	1,4081E-02
809,54	-1,1486E-02
809,86	-7,6417E-03
810,18	8,0456E-04
810,51	1,9851E-03
810,83	2,0213E-03
811,15	1,6127E-03
811,47	-1,6309E-03
811,79	-6,0182E-03
812,11	1,1283E-02
812,43	-3,2443E-03
812,75	-1,0659E-02
813,07	-2,0455E-03
813,39	3,6679E-03
813,71	1,0783E-02
814,03	-8,9843E-03
814,35	-3,3015E-03
814,67	-1,6398E-03
814,99	1,6646E-03
815,31	1,7520E-02
815,64	2,2066E-02
815,96	2,4034E-02
816,28	-2,0826E-03
816,60	1,0548E-02
816,92	-5,7776E-03
817,24	-3,3751E-03
817,56	-9,7289E-03
817,88	-9,8808E-03
818,19	-2,5510E-03
818,51	2,5740E-03
818,83	2,1440E-03
819,15	4,2587E-04
819,47	-5,1878E-03
819,79	1,0860E-02
820,11	-3,8930E-03
820,43	4,3780E-04
820,75	4,8638E-03
821,07	-1,0180E-02
821,39	1,6345E-02
821,71	5,7179E-03
822,03	6,7360E-03
822,35	4,4749E-03
822,67	8,9132E-04
822,99	9,5044E-03
823,31	-9,7971E-03
823,62	9,4323E-03
823,94	1,0960E-02
824,26	2,2865E-03
824,58	-1,2691E-02
824,90	1,3242E-02
825,22	4,5511E-04
825,54	7,9049E-03
825,86	-8,3996E-03
826,17	1,0759E-02
826,49	-9,7638E-03
826,81	-7,5173E-03
827,13	8,8814E-03
827,45	-1,2688E-02
827,77	-1,6203E-02
828,08	-3,7904E-03
828,40	-4,2906E-03
828,72	-1,0673E-02
829,04	8,1527E-03
829,36	-1,0020E-02
829,67	1,4498E-02
829,99	-1,2977E-02
830,31	-5,3646E-03
830,63	3,4406E-03
830,95	-1,4683E-03
831,26	2,4478E-03
831,58	1,0881E-02
831,90	-5,0025E-04
832,22	-1,0038E-03
832,53	-2,1391E-02
832,85	-1,5289E-02
833,17	-2,5005E-03
833,49	-5,0732E-03
833,80	2,0567E-02
834,12	1,1904E-02
834,44	3,1189E-03
834,76	-6,6635E-03
835,07	-3,1389E-03
835,39	-1,5078E-02
835,71	3,1470E-03
836,02	-8,8703E-03
836,34	-1,5688E-03
836,66	7,8536E-03
836,97	6,2650E-03
837,29	-6,3476E-03
837,61	1,8677E-02
837,93	-1,7932E-02
838,24	5,8794E-03
838,56	2,1364E-02
838,88	1,6189E-02
839,19	-4,2757E-03
839,51	-2,1555E-03
839,82	-4,3726E-03
840,14	8,1206E-03
840,46	7,1135E-03
840,77	-9,3594E-03
841,09	1,1085E-02
841,41	-6,5845E-03
841,72	2,0087E-02
842,04	2,4596E-02
842,35	-1,5114E-02
842,67	-9,0077E-03
842,99	-1,5943E-02
843,30	7,2970E-03
843,62	-1,7138E-03
843,93	5,7775E-04
844,25	-5,6325E-04
844,56	5,2681E-03
844,88	-1,3414E-02
845,20	1,2122E-02
845,51	-6,9650E-03
845,83	-2,9586E-02
846,14	-3,5333E-03
846,46	4,6637E-03
846,77	1,7045E-02
847,09	7,1887E-03
847,40	3,5619E-03
847,72	4,7741E-03
848,03	1,3828E-02
848,35	3,6202E-03
848,66	-3,0478E-03
848,98	0,0000E00
849,29	-3,0456E-03
849,61	-3,7219E-03
849,92	4,9168E-03
850,24	-2,4947E-03
850,55	-8,1689E-03
850,87	6,8315E-03
851,18	1,2443E-02
851,50	8,1428E-03
851,81	1,9595E-02
852,12	-3,1555E-03
852,44	2,5483E-03
852,75	-1,7879E-02
853,07	4,4132E-03
853,38	-5,8086E-03
853,70	2,1371E-02
854,01	5,2433E-03
854,32	1,6316E-02
854,64	-3,9662E-03
854,95	-3,9409E-03
855,27	-6,5848E-03
855,58	-8,4920E-03
855,89	3,3692E-03
856,21	-2,6581E-03
856,52	-5,9814E-03
856,83	0,0000E00
857,15	4,6866E-03
857,46	-4,0834E-03
857,77	8,9221E-03
858,09	-7,4653E-03
858,40	-1,5039E-02
858,71	1,3871E-02
859,03	-2,6021E-02
859,34	1,3991E-03
859,65	0,0000E00
859,97	-2,1014E-03
860,28	-2,6316E-02
860,59	2,4662E-02
860,91	1,4339E-03
861,22	1,0765E-02
861,53	1,3743E-02
861,84	2,2464E-02
862,16	2,6397E-02
862,47	5,1191E-03
862,78	-2,9500E-03
863,10	-1,3189E-02
863,41	-5,8833E-03
863,72	-2,9583E-03
864,03	-2,4027E-02
864,35	-7,4059E-04
864,66	-4,4878E-03
864,97	7,4467E-04
865,28	1,2096E-02
865,59	-6,1937E-03
865,91	1,5220E-02
866,22	0,0000E00
866,53	1,8338E-02
866,84	1,5408E-03
867,15	2,0715E-02
867,47	2,3410E-03
867,78	1,0170E-02
868,09	1,1852E-02
868,40	2,0661E-02
868,71	-2,5291E-02
869,02	-2,4669E-02
869,34	1,3808E-02
869,65	-1,8394E-02
869,96	-2,4460E-02
870,27	0,0000E00
870,58	2,0596E-02
870,89	1,6463E-02
871,20	-2,4452E-03
871,52	4,9718E-03
871,83	1,2392E-02
872,14	2,6801E-02
872,45	2,0911E-02
872,76	6,7468E-03
873,07	-3,2141E-02
873,38	-4,2515E-03
873,69	-6,8516E-03
874,00	-4,2973E-03
874,31	-4,3475E-03
874,62	-1,0324E-02
874,94	3,4547E-03
875,25	6,0649E-03
875,56	2,5981E-03
875,87	1,2366E-02
876,18	-2,7399E-02
876,49	2,0356E-02
876,80	-1,6181E-02
877,11	-8,9275E-03
877,42	-1,4277E-02
877,73	1,8041E-02
878,04	8,9820E-03
878,35	-1,8120E-03
878,66	3,6609E-03
878,97	1,7202E-02
879,28	-2,1973E-02
879,59	1,0982E-02
879,90	-9,1524E-04
880,21	-4,1792E-02
880,52	-2,7940E-02
880,83	-1,0194E-02
881,14	1,3905E-02
881,45	2,1465E-02
881,76	1,5785E-02
882,07	1,7615E-02
882,37	1,2930E-02
882,68	-6,4111E-03
882,99	3,0658E-02
883,30	1,0170E-02
883,61	1,3949E-02
883,92	1,4886E-02
884,23	2,9493E-02
884,54	3,4977E-02
884,85	1,5641E-02
885,16	2,2492E-02
885,47	5,5653E-03
885,77	2,0330E-02
886,08	2,5532E-02
886,39	-2,8762E-02
886,70	-1,8577E-03
887,01	8,3393E-03
887,32	2,2205E-02
887,63	2,5261E-02
887,93	-1,6557E-02
888,24	2,1227E-02
888,55	-4,6896E-03
888,86	2,5250E-02
889,17	-2,7808E-03
889,47	3,2148E-02
889,78	-1,3828E-02
890,09	-5,6195E-03
890,40	-1,4033E-02
890,71	0,0000E00
891,01	3,1556E-02
891,32	2,1265E-02
891,63	4,6900E-03
891,94	-1,8043E-02
892,25	1,6536E-02
892,55	-3,5203E-02
892,86	8,3962E-03
893,17	-2,8395E-03
893,48	6,5900E-03
893,78	-1,8842E-02
894,09	4,7280E-03
894,40	-8,4837E-03
894,70	3,7738E-03
895,01	-2,4303E-02
895,32	-2,8781E-02
895,63	1,1376E-02
895,93	-7,6396E-03
896,24	-8,5005E-03
896,55	-1,0412E-02
896,85	-8,4303E-03
897,16	7,5824E-03
897,47	-1,5171E-02
897,77	-1,3156E-02
898,08	9,5614E-04
898,39	-1,1479E-02
898,69	6,6973E-03
899,00	-2,5011E-02
899,31	-9,6176E-03
899,61	1,4334E-02
899,92	-3,8175E-02
900,23	7,7704E-03
900,53	1,0802E-02
900,84	-1,8460E-02
901,14	6,8636E-03
901,45	-1,3551E-02
901,76	2,9224E-02
902,06	-1,4583E-02
902,37	9,7588E-03
902,67	1,4729E-02
902,98	1,2715E-02
903,29	-1,3823E-02
903,59	1,1845E-02
903,90	-1,7125E-02
904,20	5,9863E-03
904,51	-3,2960E-02
904,81	-2,4166E-02
905,12	-3,3775E-02
905,42	-2,1167E-02
905,73	1,7160E-02
906,03	-6,1841E-03
906,34	-1,6347E-02
906,64	-8,2777E-03
906,95	6,1288E-03
907,25	1,1498E-02
907,56	1,0513E-03
907,86	1,4661E-02
908,17	1,8812E-02
908,47	0,0000E00
908,78	2,7720E-02
909,08	9,6143E-03
909,39	-1,3925E-02
909,69	2,1596E-03
910,00	-2,1666E-03
910,30	-2,1766E-02
910,61	3,7283E-02
910,91	1,6196E-02
911,21	3,9753E-02
911,52	3,6035E-02
911,82	1,2465E-02
912,13	-2,4841E-02
912,43	-2,5915E-02
912,74	0,0000E00
913,04	1,2471E-02
913,34	2,7341E-02
913,65	0,0000E00
913,95	-4,5896E-03
914,25	1,5252E-02
914,56	2,1244E-02
914,86	5,9487E-03
915,17	-1,5473E-02
915,47	-2,2503E-02
915,77	-3,4050E-02
916,08	-1,4406E-02
916,38	1,0848E-02
916,68	4,8450E-03
916,99	3,4951E-02
917,29	1,0962E-02
917,59	3,3417E-02
917,90	3,4237E-02
918,20	-6,1013E-02
918,50	-5,0574E-02
918,80	-2,4761E-02
919,11	-2,3747E-02
919,41	-2,1709E-02
919,71	-3,8397E-03
920,02	-2,0293E-02
920,32	-1,5185E-02
920,62	-7,8504E-03
920,92	5,1397E-03
921,23	-1,6792E-02
921,53	-7,9400E-03
921,83	-1,3122E-03
922,13	-5,2591E-03
922,44	1,8862E-02
922,74	8,0587E-03
923,04	-8,0204E-03
923,34	-4,4620E-02
923,64	2,1287E-02
923,95	-3,1605E-02
924,25	0,0000E00
924,55	-8,1256E-03
924,85	-1,9507E-02
925,15	-1,1087E-02
925,46	-2,2494E-02
925,76	4,2662E-03
926,06	2,1237E-02
926,36	1,4254E-02
926,66	1,2970E-02
926,96	-4,3537E-03
927,26	-5,3039E-02
927,57	4,3554E-02
927,87	-5,0061E-02
928,17	-4,2089E-02
928,47	2,5061E-02
928,77	2,3828E-02
929,07	-2,5741E-02
929,37	4,5719E-02
929,67	1,2292E-02
929,98	4,1569E-02
930,28	3,4351E-02
930,58	4,6428E-02
930,88	1,2321E-02
931,18	-2,0457E-02
931,48	1,4344E-02
931,78	6,6539E-02
932,08	5,0001E-02
932,38	4,9805E-02
932,68	-9,8315E-03
932,98	-5,7969E-02
933,28	1,6569E-02
933,58	4,0305E-02
933,88	-1,3483E-02
934,18	-2,4846E-02
934,48	1,6966E-02
934,78	-1,7086E-02
935,08	3,2053E-02
935,38	2,5741E-02
935,68	-1,9464E-02
935,98	-3,2320E-02
936,28	-1,2508E-02
936,58	-1,9640E-02
936,88	-3,0237E-02
937,18	-1,6429E-02
937,48	-5,6299E-02
937,78	4,0416E-02
938,08	3,9206E-02
938,38	2,0433E-02
938,68	-3,9127E-02
938,98	3,5706E-02
939,28	6,1349E-02
939,57	-5,0346E-02
939,87	-6,9715E-02
940,17	-9,4695E-03
940,47	-4,7422E-02
940,77	2,6632E-02
941,07	-2,5423E-02
941,37	-8,8804E-02
941,67	-4,4313E-02
941,97	-8,5004E-02
942,26	-7,5245E-02
942,56	-2,7936E-02
942,86	-5,0799E-02
943,16	3,4934E-02
943,46	2,0537E-02
943,76	-6,5736E-02
944,06	2,0480E-03
944,35	-6,2745E-03
944,65	-2,1585E-03
944,95	2,5407E-02
945,25	0,0000E00
945,55	3,0249E-02
945,84	-4,9291E-02
946,14	3,2796E-02
946,44	2,3592E-02
946,74	-2,4229E-02
947,03	-1,1360E-02
947,33	-2,9050E-02
947,63	-4,0536E-02
947,93	-2,0327E-02
948,23	4,3712E-02
948,52	-5,0066E-02
948,82	-4,1554E-02
949,12	-2,8672E-02
949,41	-2,3310E-03
949,71	1,6612E-02
950,01	2,3840E-02
950,31	-2,6701E-02
950,60	1,4439E-02
950,90	3,1478E-02
951,20	4,1268E-02
951,49	9,1333E-02
951,79	9,8469E-03
952,09	7,8393E-02
952,38	2,8041E-02
952,68	2,0358E-02
952,98	1,8283E-02
953,27	-5,1429E-02
953,57	1,1501E-01
953,87	-3,1305E-02
954,16	4,7134E-02
954,46	6,4913E-02
954,76	6,3643E-02
955,05	7,0359E-02
955,35	4,0495E-02
955,64	-5,1670E-02
955,94	-5,2881E-02
956,24	-5,5490E-03
956,53	4,9888E-02
956,83	5,5243E-03
957,12	3,0692E-02
957,42	-2,8313E-03
957,72	-6,3685E-02
958,01	-3,1933E-02
958,31	-3,4701E-02
958,60	-4,9663E-02
958,90	1,8068E-02
959,19	2,7692E-02
959,49	7,7715E-02
959,78	8,8183E-02
960,08	2,1071E-02
960,37	6,0532E-03
960,67	9,1091E-02
960,96	-3,1435E-03
961,26	2,4742E-02
961,55	1,8557E-02
961,85	3,2932E-03
962,14	1,9418E-02
962,44	-1,0129E-01
962,73	9,7288E-03
963,03	-1,9295E-02
963,32	-6,1450E-02
963,62	-2,0138E-02
963,91	-6,6544E-02
964,21	1,3355E-02
964,50	0,0000E00
964,80	-6,1698E-02
965,09	-4,0768E-02
965,38	-1,3852E-02
965,68	1,0322E-01
965,97	-1,2420E-01
966,27	-2,1217E-02
966,56	0,0000E00
966,85	1,0507E-01
967,15	1,2854E-01
967,44	-2,1173E-02
967,74	4,0556E-02
968,03	-8,7121E-02
968,32	-1,4246E-01
968,62	-8,0521E-02
968,91	2,6795E-02
969,20	1,0068E-01
969,50	6,0846E-02
969,79	-6,9228E-02
970,08	-6,2489E-02
970,38	5,0888E-02
970,67	6,3385E-02
970,96	-6,7831E-02
971,26	7,9984E-03
971,55	-4,3716E-02
971,84	0,0000E00
972,13	-1,2090E-01
972,43	4,1175E-02
972,72	1,2455E-02
973,01	-3,8448E-02
973,31	8,4537E-02
973,60	-3,5075E-02
973,89	2,5438E-01
974,18	4,7155E-02
974,48	1,3016E-02
974,77	1,1847E-01
975,06	1,7931E-02
975,35	1,2284E-01
975,64	-2,7190E-02
975,94	7,8021E-02
976,23	-9,4550E-02
976,52	-1,8179E-02
976,81	2,3937E-02
977,10	-3,2928E-02
977,40	-9,9083E-02
977,69	6,2086E-02
977,98	-2,4521E-02
978,27	-2,1749E-01
978,56	9,3436E-02
978,86	-1,2128E-01
979,15	-4,4624E-02
979,44	3,0514E-02
979,73	5,1072E-03
980,02	1,0408E-02
980,31	-1,3148E-01
980,60	-5,2626E-02
980,89	0,0000E00
981,19	6,5513E-02
981,48	5,3862E-03
981,77	-1,6489E-02
982,06	-1,0921E-02
982,35	0,0000E00
982,64	1,2188E-01
982,93	8,6105E-02
983,22	1,5119E-01
983,51	-1,4015E-01
983,80	5,2481E-02
984,09	2,2630E-01
984,38	4,5986E-02
984,67	4,1644E-02
984,96	4,7482E-02
985,25	6,1907E-03
985,55	6,0677E-03
985,84	-1,9286E-01
986,13	-2,4428E-01
986,42	6,3463E-02
986,71	3,7582E-02
987,00	4,5275E-02
987,29	-2,2803E-01
987,58	-9,1480E-02
987,86	-7,2201E-02
988,15	-1,0073E-01
988,44	3,4027E-02
988,73	-1,6169E-01
989,02	-1,8117E-01
989,31	1,4031E-02
989,60	7,2936E-02
989,89	-1,0037E-01
990,18	1,1606E-01
990,47	9,7244E-02
990,76	1,7245E-01
991,05	3,7541E-01
991,34	-1,3201E-01
991,63	9,4109E-02
991,92	7,2332E-03
992,20	8,8480E-02
992,49	1,0093E-01
992,78	-8,2151E-02
993,07	7,0985E-02
993,36	-1,9162E-01
993,65	5,4853E-02
993,94	1,5105E-01
994,22	1,8367E-01
994,51	2,2673E-01
994,80	-2,8538E-01
995,09	1,0005E-01
995,38	2,0555E-01
995,67	2,4780E-01
995,95	5,1106E-02
996,24	2,8713E-01
996,53	3,3747E-02
996,82	4,3139E-01
997,11	1,7509E-01
997,39	-1,8502E-01
997,68	9,3603E-02
997,97	4,5230E-02
998,26	-5,6074E-02
998,54	-2,5605E-01
998,83	4,5033E-02
999,12	1,0169E-01
999,41	2,5604E-01
999,69	6,5667E-02
999,98	2,5786E-01
1000,27	-2,9069E-02
1000,56	-2,1289E-01
1000,84	-1,9329E-01
1001,13	0,0000E00
1001,42	3,0771E-02
1001,70	-1,0739E-01
1001,99	6,3295E-02
1002,28	2,8298E-01
1002,56	4,9431E-01
1002,85	-1,5225E-01
1003,14	-1,6322E-01
1003,42	7,3457E-02
1003,71	5,4017E-02
1004,00	-8,8863E-02
1004,28	5,8228E-02
1004,57	1,4738E-01
1004,86	3,3737E-01
1005,14	2,3048E-02
1005,43	-3,4500E-01
1005,72	-6,9912E-02
1006,00	-6,0718E-02
1006,29	-9,2078E-02
1006,57	-1,9816E-01
1006,86	1,4819E-01
1007,15	1,5890E-01
1007,43	-5,3130E-02
1007,72	-2,6314E-01
1008,00	-2,1142E-01
1008,29	-6,6773E-02
1008,57	2,3612E-01
1008,86	-2,2148E-01
1009,14	4,1102E-01
1009,43	1,4448E-01
1009,71	2,6799E-01
1010,00	-2,7066E-01
1010,29	-4,7949E-01
1010,57	-6,9252E-02
1010,86	5,6580E-01
1011,14	-2,3193E-01
1011,43	-1,5270E-01
1011,71	1,5433E-01
1011,99	8,7318E-02
1012,28	2,3242E-01
1012,56	9,3016E-02
1012,85	2,0676E-01
1013,13	6,5050E-01
1013,42	-2,0288E-01
1013,70	-1,5853E-01
1013,99	8,7541E-02
1014,27	4,8126E-02
1014,56	-1,9406E-01
1014,84	3,9661E-01
1015,12	3,1019E-01
1015,41	-2,4335E-01
1015,69	-1,8189E-02
1015,98	-7,8342E-01
1016,26	1,0337E00
1016,54	1,8913E-01
1016,83	3,5536E-01
1017,11	4,3442E-01
1017,39	5,0698E-01
1017,68	6,1458E-01
1017,96	3,5795E-01
1018,25	3,4856E-01
1018,53	-1,2192E-01
1018,81	-3,2823E-01
1019,10	9,7816E-02
1019,38	8,2019E-02
1019,66	1,0066E-01
1019,94	2,0758E-01
1020,23	-2,4783E-01
1020,51	5,9922E-02
1020,79	-4,6278E-01
1021,08	1,0775E-01
1021,36	2,3811E-01
1021,64	3,7724E-01
1021,93	-4,3248E-01
1022,21	6,7306E-01
1022,49	6,7306E-01
>>>>>End Processed Spectral Data<<<<<
