SpectraSuite Data File
++++++++++++++++++++++++++++++++++++
Date: Thu Apr 21 10:52:00 EEST 2016
User: mkilpela
Dark Spectrum Present: Yes
Reference Spectrum Present: No
Number of Sampled Component Spectra: 1
Spectrometers: JAZA2845
Integration Time (usec): 1422065 (JAZA2845)
Spectra Averaged: 1 (JAZA2845)
Boxcar Smoothing: 0 (JAZA2845)
Correct for Electrical Dark: No (JAZA2845)
Strobe/Lamp Enabled: No (JAZA2845)
Correct for Detector Non-linearity: No (JAZA2845)
Correct for Stray Light: No (JAZA2845)
Number of Pixels in Processed Spectrum: 2048
>>>>>Begin Processed Spectral Data<<<<<
340,21	0,0000E00
340,58	0,0000E00
340,96	0,0000E00
341,33	0,0000E00
341,70	0,0000E00
342,07	-0,0000E00
342,45	-0,0000E00
342,82	-0,0000E00
343,19	-0,0000E00
343,57	-0,0000E00
343,94	-0,0000E00
344,31	0,0000E00
344,68	0,0000E00
345,06	-0,0000E00
345,43	0,0000E00
345,80	-0,0000E00
346,18	-0,0000E00
346,55	0,0000E00
346,92	-0,0000E00
347,29	0,0000E00
347,67	0,0000E00
348,04	-0,0000E00
348,41	-0,0000E00
348,78	-0,0000E00
349,16	0,0000E00
349,53	-0,0000E00
349,90	-0,0000E00
350,27	9,1342E-04
350,64	-1,0473E-04
351,02	1,3788E-03
351,39	1,4267E-04
351,76	8,6946E-04
352,13	2,1777E-03
352,51	2,5170E-04
352,88	4,8508E-04
353,25	1,0151E-03
353,62	5,6170E-04
353,99	-2,7790E-04
354,37	1,0013E-03
354,74	-1,7483E-04
355,11	-3,2983E-04
355,48	-7,4393E-04
355,85	-8,4834E-04
356,23	5,9907E-04
356,60	-1,2188E-03
356,97	0,0000E00
357,34	-3,8527E-03
357,71	4,3352E-04
358,08	-6,7250E-04
358,46	8,6283E-04
358,83	1,3163E-03
359,20	-6,4609E-04
359,57	-2,9436E-04
359,94	2,7459E-05
360,31	-2,9325E-04
360,69	2,0017E-04
361,06	-5,9216E-04
361,43	-1,9501E-04
361,80	-7,8240E-05
362,17	9,0247E-04
362,54	-2,8895E-04
362,91	6,2239E-04
363,29	4,5808E-04
363,66	-1,1253E-03
364,03	7,7826E-04
364,40	-1,6118E-03
364,77	5,2978E-04
365,14	1,3526E-03
365,51	1,2247E-03
365,88	6,0200E-05
366,26	4,3056E-04
366,63	2,3285E-05
367,00	4,7081E-05
367,37	4,0022E-04
367,74	2,4030E-03
368,11	1,6792E-04
368,48	0,0000E00
368,85	-1,3854E-03
369,22	1,9898E-04
369,59	1,2239E-04
369,97	5,1716E-04
370,34	-8,4804E-04
370,71	-2,4580E-04
371,08	3,6553E-05
371,45	-3,9955E-04
371,82	-3,1749E-04
372,19	-2,9813E-04
372,56	7,2057E-04
372,93	-4,9368E-04
373,30	2,9360E-04
373,67	1,5991E-03
374,04	3,6870E-04
374,41	-6,9662E-04
374,78	-1,5637E-04
375,15	-3,1917E-04
375,52	1,2858E-04
375,89	5,7974E-04
376,26	4,0431E-04
376,63	5,4183E-05
377,00	-5,2900E-04
377,38	-9,0208E-05
377,75	9,9295E-04
378,12	-8,1923E-04
378,49	-3,0810E-04
378,86	-4,1166E-04
379,23	-4,4160E-04
379,60	-1,9025E-04
379,97	2,8453E-04
380,34	3,5587E-04
380,71	-2,0507E-04
381,08	-1,3173E-04
381,45	-3,0484E-04
381,82	-2,4359E-04
382,19	-7,1995E-04
382,55	6,7441E-04
382,92	9,0923E-05
383,29	-6,9711E-04
383,66	5,8611E-04
384,03	3,0657E-05
384,40	4,3009E-04
384,77	-5,6189E-04
385,14	5,0531E-04
385,51	-1,4964E-04
385,88	-1,7437E-04
386,25	-3,2844E-04
386,62	1,2716E-04
386,99	6,7758E-04
387,36	4,0222E-04
387,73	-2,7803E-04
388,10	-4,9643E-05
388,47	1,8057E-04
388,84	3,6051E-04
389,21	4,8595E-04
389,58	-8,1518E-05
389,94	-3,9770E-04
390,31	2,4229E-04
390,68	7,2899E-04
391,05	2,8205E-04
391,42	0,0000E00
391,79	3,7189E-04
392,16	3,4714E-04
392,53	7,8904E-04
392,90	1,9068E-04
393,27	-9,9743E-05
393,63	-1,9295E-05
394,00	4,2482E-04
394,37	2,0179E-04
394,74	6,4808E-04
395,11	8,2058E-04
395,48	4,8086E-04
395,85	5,9075E-04
396,22	3,5581E-04
396,58	1,3986E-04
396,95	3,5338E-04
397,32	3,1599E-04
397,69	-2,7013E-04
398,06	3,1279E-04
398,43	5,0251E-04
398,80	6,3929E-04
399,16	-3,6911E-04
399,53	2,2557E-04
399,90	2,7910E-04
400,27	3,9257E-04
400,64	1,0757E-04
401,01	-4,8559E-04
401,37	1,9836E-04
401,74	-2,1214E-04
402,11	6,9349E-05
402,48	-8,3938E-05
402,85	-4,3868E-05
403,22	9,4805E-05
403,58	2,5831E-04
403,95	8,7599E-05
404,32	-6,8369E-05
404,69	4,5883E-04
405,06	5,5616E-05
405,42	1,8837E-04
405,79	9,9530E-04
406,16	2,1513E-04
406,53	2,8440E-04
406,89	2,9552E-04
407,26	-1,4600E-04
407,63	-3,3885E-04
408,00	4,2354E-04
408,37	4,5493E-04
408,73	2,4760E-04
409,10	4,5420E-04
409,47	5,4214E-04
409,84	-2,9660E-05
410,20	1,0473E-04
410,57	4,3791E-05
410,94	2,4895E-04
411,31	2,7269E-04
411,67	9,5983E-05
412,04	3,6268E-04
412,41	-9,4696E-05
412,77	3,8222E-04
413,14	-1,2942E-05
413,51	1,6567E-04
413,88	2,2055E-04
414,24	7,3575E-05
414,61	1,3543E-04
414,98	-5,4575E-05
415,34	2,1067E-04
415,71	2,5796E-04
416,08	-4,7773E-05
416,45	-5,0348E-05
416,81	2,6829E-04
417,18	5,3277E-04
417,55	5,2631E-04
417,91	3,2407E-04
418,28	-1,6283E-04
418,65	3,9190E-04
419,01	2,5158E-04
419,38	5,5639E-04
419,75	8,4069E-04
420,11	6,2803E-04
420,48	5,5742E-04
420,85	5,3015E-04
421,21	4,6903E-04
421,58	5,8006E-04
421,95	3,2836E-04
422,31	4,1138E-04
422,68	3,1411E-04
423,05	3,9301E-04
423,41	8,4593E-04
423,78	7,9587E-04
424,15	6,0854E-04
424,51	2,2138E-04
424,88	4,5550E-04
425,24	5,1879E-04
425,61	8,7697E-04
425,98	6,5529E-04
426,34	2,2558E-04
426,71	8,7896E-04
427,07	2,3011E-04
427,44	1,1378E-03
427,81	1,1435E-03
428,17	8,0170E-04
428,54	9,7250E-04
428,90	1,2801E-03
429,27	1,2616E-03
429,64	1,0133E-03
430,00	1,1466E-03
430,37	1,0272E-03
430,73	1,2934E-03
431,10	1,1878E-03
431,46	1,8398E-03
431,83	1,9232E-03
432,20	2,3564E-03
432,56	2,7597E-03
432,93	2,1857E-03
433,29	2,6901E-03
433,66	2,6491E-03
434,02	2,0873E-03
434,39	2,2856E-03
434,75	2,5813E-03
435,12	2,9746E-03
435,49	3,0057E-03
435,85	3,8101E-03
436,22	3,6165E-03
436,58	3,8317E-03
436,95	4,2283E-03
437,31	4,8554E-03
437,68	4,7877E-03
438,04	5,6311E-03
438,41	5,5743E-03
438,77	5,9559E-03
439,14	6,7012E-03
439,50	7,2685E-03
439,87	7,5634E-03
440,23	7,7406E-03
440,60	8,3401E-03
440,96	9,0351E-03
441,33	9,7296E-03
441,69	1,0483E-02
442,06	1,1146E-02
442,42	1,1285E-02
442,78	1,2271E-02
443,15	1,2879E-02
443,51	1,3559E-02
443,88	1,5384E-02
444,24	1,5436E-02
444,61	1,7595E-02
444,97	1,8950E-02
445,34	1,9130E-02
445,70	2,2276E-02
446,07	2,2958E-02
446,43	2,3861E-02
446,79	2,5144E-02
447,16	2,7328E-02
447,52	2,9059E-02
447,89	3,1671E-02
448,25	3,3574E-02
448,62	3,5290E-02
448,98	3,9654E-02
449,34	4,2100E-02
449,71	4,3972E-02
450,07	4,9193E-02
450,44	5,0009E-02
450,80	5,0533E-02
451,16	5,6461E-02
451,53	5,9046E-02
451,89	6,5268E-02
452,25	6,7656E-02
452,62	7,2416E-02
452,98	7,5599E-02
453,35	8,2227E-02
453,71	8,8292E-02
454,07	9,3444E-02
454,44	9,3409E-02
454,80	9,8687E-02
455,16	1,0331E-01
455,53	1,0704E-01
455,89	1,1566E-01
456,25	1,1847E-01
456,62	1,2593E-01
456,98	1,3162E-01
457,34	1,3467E-01
457,71	1,4005E-01
458,07	1,4605E-01
458,43	1,5677E-01
458,80	1,5758E-01
459,16	1,5839E-01
459,52	1,5957E-01
459,89	1,6637E-01
460,25	1,6380E-01
460,61	1,6932E-01
460,98	1,7592E-01
461,34	1,7617E-01
461,70	1,7841E-01
462,07	1,7966E-01
462,43	1,7611E-01
462,79	1,8241E-01
463,15	1,8118E-01
463,52	1,7829E-01
463,88	1,8298E-01
464,24	1,8358E-01
464,61	1,7357E-01
464,97	1,7735E-01
465,33	1,7563E-01
465,69	1,7293E-01
466,06	1,7130E-01
466,42	1,6358E-01
466,78	1,6324E-01
467,14	1,6061E-01
467,51	1,5890E-01
467,87	1,5285E-01
468,23	1,4971E-01
468,59	1,4489E-01
468,95	1,3808E-01
469,32	1,3686E-01
469,68	1,3043E-01
470,04	1,2665E-01
470,40	1,2505E-01
470,77	1,1912E-01
471,13	1,1870E-01
471,49	1,1380E-01
471,85	1,0857E-01
472,21	1,0480E-01
472,58	1,0358E-01
472,94	9,6838E-02
473,30	9,2994E-02
473,66	9,3532E-02
474,02	8,7774E-02
474,39	8,8253E-02
474,75	8,1426E-02
475,11	7,7836E-02
475,47	7,5060E-02
475,83	7,4055E-02
476,19	6,8796E-02
476,56	6,6603E-02
476,92	6,6070E-02
477,28	6,3408E-02
477,64	6,2611E-02
478,00	5,9613E-02
478,36	5,7203E-02
478,72	5,4053E-02
479,09	5,2599E-02
479,45	5,2063E-02
479,81	5,0967E-02
480,17	4,9364E-02
480,53	4,5868E-02
480,89	4,6263E-02
481,25	4,4097E-02
481,61	4,1888E-02
481,97	4,1315E-02
482,34	3,9094E-02
482,70	3,8340E-02
483,06	3,6644E-02
483,42	3,5608E-02
483,78	3,4244E-02
484,14	3,2645E-02
484,50	3,1704E-02
484,86	2,9827E-02
485,22	2,9771E-02
485,58	2,8208E-02
485,94	2,7399E-02
486,31	2,5795E-02
486,67	2,4790E-02
487,03	2,3911E-02
487,39	2,3401E-02
487,75	2,2174E-02
488,11	2,1357E-02
488,47	2,0899E-02
488,83	1,9920E-02
489,19	1,9116E-02
489,55	1,8073E-02
489,91	1,7057E-02
490,27	1,6717E-02
490,63	1,6573E-02
490,99	1,5442E-02
491,35	1,4781E-02
491,71	1,4164E-02
492,07	1,3668E-02
492,43	1,3573E-02
492,79	1,2588E-02
493,15	1,2490E-02
493,51	1,1619E-02
493,87	1,1409E-02
494,23	1,1072E-02
494,59	1,0565E-02
494,95	1,0269E-02
495,31	9,7600E-03
495,67	9,5554E-03
496,03	8,9887E-03
496,39	8,7607E-03
496,75	8,7457E-03
497,11	8,3397E-03
497,47	8,1265E-03
497,83	7,8397E-03
498,19	7,6605E-03
498,55	7,2522E-03
498,91	6,9557E-03
499,27	6,5719E-03
499,63	6,7117E-03
499,98	6,3673E-03
500,34	6,0438E-03
500,70	5,9469E-03
501,06	5,8408E-03
501,42	5,6187E-03
501,78	5,2243E-03
502,14	5,1887E-03
502,50	5,1212E-03
502,86	5,0208E-03
503,22	4,5410E-03
503,58	4,3460E-03
503,94	4,3409E-03
504,29	4,1134E-03
504,65	4,1511E-03
505,01	3,7921E-03
505,37	3,7502E-03
505,73	3,5606E-03
506,09	3,4794E-03
506,45	3,3349E-03
506,81	3,2314E-03
507,16	3,0468E-03
507,52	2,8681E-03
507,88	2,7586E-03
508,24	2,5195E-03
508,60	2,6430E-03
508,96	2,3788E-03
509,32	2,4608E-03
509,67	2,4114E-03
510,03	2,3265E-03
510,39	2,1227E-03
510,75	1,9633E-03
511,11	2,0795E-03
511,47	1,7337E-03
511,82	1,7417E-03
512,18	1,8132E-03
512,54	1,8285E-03
512,90	1,7003E-03
513,26	1,5144E-03
513,61	1,4793E-03
513,97	1,4982E-03
514,33	1,4288E-03
514,69	1,5313E-03
515,05	1,2135E-03
515,40	1,2988E-03
515,76	1,0552E-03
516,12	1,3439E-03
516,48	1,2313E-03
516,83	1,3006E-03
517,19	1,1279E-03
517,55	1,1167E-03
517,91	9,5076E-04
518,26	1,0158E-03
518,62	1,0307E-03
518,98	9,7118E-04
519,34	1,0280E-03
519,69	9,0106E-04
520,05	8,3275E-04
520,41	8,6896E-04
520,77	8,6530E-04
521,12	8,3047E-04
521,48	6,7788E-04
521,84	6,7870E-04
522,19	6,7078E-04
522,55	7,0412E-04
522,91	7,3473E-04
523,27	6,3475E-04
523,62	7,3449E-04
523,98	6,8931E-04
524,34	7,3598E-04
524,69	5,7717E-04
525,05	5,0548E-04
525,41	4,9077E-04
525,76	5,3047E-04
526,12	4,8247E-04
526,48	5,5572E-04
526,83	4,0779E-04
527,19	5,7949E-04
527,55	5,1382E-04
527,90	6,5805E-04
528,26	3,9617E-04
528,62	2,9220E-04
528,97	3,9452E-04
529,33	4,3809E-04
529,69	3,0849E-04
530,04	4,6869E-04
530,40	3,6226E-04
530,76	4,2364E-04
531,11	2,9614E-04
531,47	3,1535E-04
531,82	3,8848E-04
532,18	1,9690E-04
532,54	2,9330E-04
532,89	3,6831E-04
533,25	2,0356E-04
533,60	2,6131E-04
533,96	2,5480E-04
534,32	2,3395E-04
534,67	2,2358E-04
535,03	1,7578E-04
535,38	1,9907E-04
535,74	6,0751E-05
536,10	2,5784E-04
536,45	2,2413E-04
536,81	2,2732E-04
537,16	1,6742E-04
537,52	1,2920E-04
537,87	3,0288E-04
538,23	2,4502E-04
538,58	1,9139E-04
538,94	2,0994E-04
539,30	1,7125E-04
539,65	1,5408E-04
540,01	2,2768E-04
540,36	6,7717E-05
540,72	1,1308E-04
541,07	1,5501E-05
541,43	5,3338E-05
541,78	9,8469E-05
542,14	1,4241E-04
542,49	3,1576E-05
542,85	1,0586E-04
543,20	2,8693E-05
543,56	6,9199E-05
543,91	1,0669E-04
544,27	8,4212E-05
544,62	1,6876E-04
544,98	5,3851E-05
545,33	1,0666E-04
545,69	3,7163E-05
546,04	2,1986E-04
546,40	9,1417E-05
546,75	1,9206E-04
547,10	1,3658E-04
547,46	8,0903E-05
547,81	-9,4796E-06
548,17	-9,3150E-06
548,52	6,5555E-05
548,88	-3,0996E-06
549,23	1,5265E-04
549,59	1,2466E-05
549,94	1,0889E-04
550,29	6,8031E-05
550,65	4,3425E-05
551,00	1,5287E-04
551,36	1,1857E-04
551,71	1,4019E-04
552,06	4,0810E-05
552,42	8,7022E-05
552,77	2,1825E-05
553,13	9,0568E-05
553,48	3,7316E-05
553,83	6,9220E-05
554,19	1,0820E-04
554,54	7,5267E-05
554,90	6,8754E-05
555,25	9,0713E-05
555,60	8,0720E-05
555,96	1,3435E-04
556,31	1,5055E-04
556,66	1,2610E-05
557,02	-4,6789E-05
557,37	2,3038E-04
557,72	1,5767E-05
558,08	-2,4893E-05
558,43	7,8915E-05
558,79	8,2257E-05
559,14	1,2607E-04
559,49	-5,6805E-05
559,85	5,6522E-05
560,20	1,9078E-05
560,55	8,5457E-05
560,90	-4,7292E-05
561,26	1,8975E-05
561,61	3,1695E-06
561,96	1,1845E-04
562,32	5,4516E-05
562,67	-3,2097E-06
563,02	-1,2852E-05
563,38	7,9580E-05
563,73	2,2489E-05
564,08	1,7133E-04
564,43	1,1268E-04
564,79	2,5889E-05
565,14	1,9263E-04
565,49	4,5705E-05
565,84	1,6346E-05
566,20	-4,2723E-05
566,55	5,8471E-05
566,90	-1,0261E-04
567,25	1,5966E-04
567,61	1,3067E-05
567,96	-1,0202E-04
568,31	5,9265E-05
568,66	6,5609E-06
569,02	-6,5999E-05
569,37	-5,6814E-05
569,72	9,9775E-06
570,07	1,9948E-05
570,42	3,0039E-05
570,78	-2,6955E-05
571,13	1,3398E-05
571,48	-5,0403E-05
571,83	1,1782E-04
572,18	-2,6855E-05
572,54	0,0000E00
572,89	-6,0711E-05
573,24	-1,0051E-05
573,59	4,3784E-05
573,94	-7,8592E-05
574,30	2,7117E-05
574,65	-4,0806E-05
575,00	4,0548E-05
575,35	-5,4513E-05
575,70	1,3635E-05
576,05	6,1096E-05
576,40	3,0874E-05
576,76	-5,7929E-05
577,11	-1,0195E-05
577,46	2,7319E-05
577,81	4,1057E-05
578,16	-1,0635E-04
578,51	6,5644E-05
578,86	8,9268E-05
579,21	2,7474E-05
579,57	-3,4733E-05
579,92	9,9616E-05
580,27	-3,4531E-05
580,62	3,4789E-06
580,97	3,1157E-05
581,32	-5,2062E-05
581,67	7,9890E-05
582,02	8,7200E-05
582,37	9,4367E-05
582,72	5,9296E-05
583,08	1,1930E-04
583,43	8,3495E-05
583,78	-3,4901E-06
584,13	1,3945E-05
584,48	7,0135E-06
584,83	2,4584E-05
585,18	-8,0670E-05
585,53	6,3038E-05
585,88	7,6564E-05
586,23	9,2334E-05
586,58	-7,0367E-05
586,93	1,1178E-04
587,28	-3,1786E-05
587,63	-1,0487E-05
587,98	1,7631E-05
588,33	1,0208E-04
588,68	-1,1772E-04
589,03	3,1657E-05
589,38	-7,8016E-05
589,73	-9,2392E-05
590,08	0,0000E00
590,43	-5,6996E-05
590,78	4,9513E-05
591,13	3,5449E-05
591,48	-6,0161E-05
591,83	3,8892E-05
592,18	1,3135E-04
592,53	1,1362E-04
592,88	1,5923E-04
593,23	6,0777E-05
593,58	9,6239E-05
593,93	5,0275E-05
594,28	-3,5586E-05
594,63	-1,0431E-04
594,98	2,4897E-05
595,33	-8,9311E-05
595,68	-8,6395E-05
596,02	2,8755E-05
596,37	1,4327E-05
596,72	6,8749E-05
597,07	9,7075E-05
597,42	2,9041E-05
597,77	-6,8443E-05
598,12	1,0490E-04
598,47	1,0599E-04
598,82	-4,3400E-05
599,17	1,2763E-04
599,52	1,1718E-04
599,86	5,4535E-05
600,21	3,6639E-06
600,56	1,2953E-04
600,91	-5,5202E-05
601,26	2,3123E-04
601,61	6,2257E-05
601,96	7,0112E-05
602,30	7,4853E-05
602,65	-1,8516E-05
603,00	1,5039E-05
603,35	1,1138E-05
603,70	-1,5754E-04
604,05	-3,7566E-06
604,40	0,0000E00
604,74	7,4934E-06
605,09	1,8973E-05
605,44	2,6510E-05
605,79	1,8970E-05
606,14	1,4432E-04
606,48	-8,7800E-05
606,83	9,9023E-05
607,18	1,0746E-04
607,53	1,7693E-04
607,88	3,4601E-05
608,22	1,9225E-05
608,57	8,8505E-05
608,92	8,1546E-05
609,27	1,9457E-05
609,62	-1,6735E-04
609,96	-4,2806E-05
610,31	6,6414E-05
610,66	-3,9227E-05
611,01	-8,6362E-05
611,35	6,3081E-05
611,70	-1,5463E-04
612,05	-7,5309E-05
612,40	2,7882E-05
612,74	1,1989E-05
613,09	-1,2764E-04
613,44	7,1905E-05
613,79	8,4543E-05
614,13	7,2806E-05
614,48	1,1215E-04
614,83	0,0000E00
615,17	8,9801E-05
615,52	5,7037E-05
615,87	-2,8516E-05
616,22	3,2535E-05
616,56	-2,4481E-05
616,91	4,1174E-05
617,26	8,2563E-05
617,60	1,1910E-04
617,95	2,8909E-05
618,30	-2,0830E-05
618,64	8,7194E-05
618,99	-7,8808E-05
619,34	-9,2628E-05
619,68	-8,3299E-06
620,03	5,4341E-05
620,38	-2,9244E-05
620,72	6,6865E-05
621,07	4,6046E-05
621,42	-1,6937E-05
621,76	4,1998E-06
622,11	2,9517E-05
622,45	-2,1435E-05
622,80	-6,3719E-05
623,15	5,1721E-05
623,49	4,7042E-05
623,84	-1,2909E-05
624,18	-6,8607E-05
624,53	8,6195E-06
624,88	4,3102E-05
625,22	0,0000E00
625,57	1,6020E-04
625,91	8,7657E-06
626,26	6,1561E-05
626,61	-5,2416E-05
626,95	7,4520E-05
627,30	-6,1518E-05
627,64	1,6214E-04
627,99	1,2392E-04
628,33	-1,0102E-04
628,68	-1,3288E-04
629,03	4,4422E-05
629,37	0,0000E00
629,72	9,8410E-05
630,06	6,2017E-05
630,41	-2,2483E-05
630,75	-1,6135E-04
631,10	-2,2442E-05
631,44	1,0299E-04
631,79	-7,6880E-05
632,13	8,0974E-05
632,48	8,1269E-05
632,82	3,6079E-05
633,17	1,2694E-04
633,51	-1,0547E-04
633,86	-1,0029E-04
634,20	-8,2504E-05
634,55	-1,6902E-04
634,89	1,1950E-04
635,24	-9,2271E-05
635,58	1,6632E-04
635,93	1,7555E-04
636,27	7,3664E-05
636,62	-9,7656E-05
636,96	1,2970E-04
637,30	1,3985E-04
637,65	3,7463E-05
637,99	1,6693E-04
638,34	1,2640E-04
638,68	1,3698E-04
639,03	1,5447E-04
639,37	5,2052E-05
639,71	9,3901E-06
640,06	4,7597E-06
640,40	-3,4031E-04
640,75	1,3389E-04
641,09	6,1604E-05
641,44	4,7458E-06
641,78	1,0412E-04
642,12	1,6732E-04
642,47	-9,1295E-05
642,81	1,2853E-04
643,15	8,7029E-05
643,50	4,8280E-06
643,84	-3,8450E-05
644,19	-4,3697E-05
644,53	3,3931E-05
644,87	-1,9368E-05
645,22	6,8042E-05
645,56	-1,9004E-04
645,90	-5,3838E-05
646,25	-1,8545E-04
646,59	5,3967E-05
646,93	-1,1809E-04
647,28	-2,1092E-04
647,62	6,4050E-05
647,96	8,9342E-05
648,31	-1,4892E-05
648,65	1,4886E-05
648,99	-1,9237E-04
649,34	-6,4945E-05
649,68	1,6995E-04
650,02	-2,3543E-04
650,36	-3,0014E-05
650,71	3,5087E-05
651,05	5,0452E-05
651,39	9,6117E-05
651,74	1,3063E-04
652,08	-1,8317E-04
652,42	-2,4255E-04
652,76	-4,6154E-05
653,11	5,6424E-05
653,45	-1,3366E-04
653,79	-1,4460E-04
654,13	-5,1324E-06
654,48	7,2075E-05
654,82	8,7750E-05
655,16	3,1262E-05
655,50	-9,9395E-05
655,85	5,2632E-05
656,19	-3,6292E-05
656,53	-7,8900E-05
656,87	1,5754E-05
657,21	1,5820E-05
657,56	-7,3957E-05
657,90	1,0541E-05
658,24	1,5964E-05
658,58	-5,3341E-06
658,92	2,1667E-04
659,27	5,2994E-06
659,61	-3,2017E-05
659,95	1,8141E-04
660,29	2,1474E-05
660,63	3,7848E-05
660,97	-5,3653E-05
661,32	-8,1248E-05
661,66	1,6215E-04
662,00	9,2001E-05
662,34	2,0219E-04
662,68	6,0390E-05
663,02	-5,4594E-05
663,37	1,4161E-04
663,71	-2,4862E-04
664,05	-1,4322E-04
664,39	-1,0507E-04
664,73	1,1045E-05
665,07	2,2545E-05
665,41	5,5639E-05
665,75	2,2302E-05
666,09	-5,6107E-05
666,44	1,0562E-04
666,78	-6,2102E-05
667,12	-1,2514E-04
667,46	-1,1857E-04
667,80	-1,1432E-05
668,14	1,2580E-04
668,48	2,8506E-05
668,82	5,1693E-05
669,16	-9,7570E-05
669,50	-1,1503E-04
669,84	-9,8246E-05
670,18	-9,9214E-05
670,52	-8,7702E-05
670,86	-9,4044E-05
671,20	-1,3541E-04
671,54	4,1612E-05
671,88	-1,4255E-04
672,22	-2,3391E-05
672,57	1,8977E-04
672,91	2,5700E-04
673,25	1,2098E-04
673,59	1,1838E-05
673,93	-8,4069E-05
674,27	6,0548E-06
674,61	-1,7113E-04
674,95	-4,2488E-05
675,28	6,1001E-05
675,62	-5,5072E-05
675,96	2,3231E-04
676,30	2,4375E-05
676,64	2,4760E-05
676,98	1,5975E-04
677,32	4,9348E-05
677,66	9,9615E-05
678,00	9,2642E-05
678,34	0,0000E00
678,68	1,3163E-04
679,02	1,2545E-04
679,36	-1,8923E-05
679,70	-6,3407E-05
680,04	2,5246E-05
680,38	-1,9118E-05
680,72	-1,1447E-04
681,06	-1,0181E-04
681,39	2,5645E-05
681,73	1,2762E-05
682,07	2,5718E-05
682,41	-1,0292E-04
682,75	5,8201E-05
683,09	1,3581E-04
683,43	9,7996E-05
683,77	1,7736E-04
684,11	5,8569E-05
684,44	2,0404E-04
684,78	2,4367E-04
685,12	1,4595E-04
685,46	-1,9214E-04
685,80	9,3125E-05
686,14	2,3878E-04
686,48	1,8760E-04
686,81	1,2803E-04
687,15	-6,0498E-05
687,49	-8,7840E-05
687,83	-9,3386E-05
688,17	1,6390E-04
688,51	6,8336E-06
688,84	8,2317E-05
689,18	3,4219E-05
689,52	5,5239E-05
689,86	2,7477E-05
690,20	-1,6505E-04
690,53	-3,0337E-04
690,87	-6,8994E-05
691,21	-8,3690E-05
691,55	-2,6535E-04
691,88	3,5198E-05
692,22	7,0705E-06
692,56	-9,1370E-05
692,90	1,9727E-04
693,23	9,9065E-05
693,57	-9,2233E-05
693,91	1,9907E-04
694,25	1,9218E-04
694,58	-4,9837E-05
694,92	-8,5608E-05
695,26	-1,0677E-04
695,60	-8,6688E-05
695,93	-1,0774E-04
696,27	3,5969E-05
696,61	-1,3799E-04
696,94	-1,3832E-04
697,28	-9,4962E-05
697,62	2,5849E-04
697,96	-8,8190E-05
698,29	9,5106E-05
698,63	-2,1890E-04
698,97	-4,4431E-05
699,30	-1,4763E-04
699,64	-1,8398E-04
699,98	1,4858E-05
700,31	-2,3688E-04
700,65	1,5538E-04
700,99	-2,5554E-04
701,32	0,0000E00
701,66	-1,4989E-05
702,00	0,0000E00
702,33	7,4937E-05
702,67	-7,4784E-06
703,00	2,9416E-04
703,34	-7,5262E-06
703,68	3,0358E-05
704,01	-2,9181E-04
704,35	1,5386E-04
704,69	-4,5924E-05
705,02	-1,3055E-04
705,36	-9,1563E-05
705,69	7,7005E-05
706,03	8,5292E-05
706,36	7,6808E-06
706,70	-7,7458E-05
707,04	1,5535E-04
707,37	-8,4911E-05
707,71	-2,8563E-04
708,04	5,4645E-05
708,38	8,5240E-05
708,71	7,7800E-05
709,05	1,8921E-04
709,39	5,5097E-05
709,72	4,7584E-05
710,06	1,6564E-04
710,39	-7,9618E-06
710,73	3,1605E-04
711,06	2,9528E-04
711,40	3,3598E-04
711,73	-2,0703E-04
712,07	0,0000E00
712,40	-4,7885E-05
712,74	-1,1963E-04
713,07	1,9288E-04
713,41	1,2091E-04
713,74	2,4196E-05
714,08	-7,3059E-05
714,41	2,0534E-04
714,75	-5,7145E-05
715,08	-8,9772E-05
715,42	1,4733E-04
715,75	-4,1085E-05
716,08	3,2863E-05
716,42	1,6527E-04
716,75	-2,8014E-04
717,09	4,9664E-05
717,42	4,4086E-04
717,76	-1,4881E-04
718,09	-2,4839E-05
718,43	-4,1916E-05
718,76	-6,6508E-05
719,09	-1,1647E-04
719,43	7,5658E-05
719,76	-1,1843E-04
720,10	-3,7286E-04
720,43	-5,0583E-05
720,76	-1,6065E-04
721,10	-3,9392E-04
721,43	-3,3789E-04
721,76	-1,6090E-04
722,10	-1,5326E-04
722,43	-2,7465E-04
722,77	-2,4911E-04
723,10	-1,0334E-04
723,43	0,0000E00
723,77	-1,0427E-04
724,10	-2,6027E-05
724,43	6,0411E-05
724,77	-1,4730E-04
725,10	-3,5098E-05
725,43	-3,5522E-04
725,77	-1,3108E-04
726,10	3,1502E-04
726,43	1,7504E-05
726,77	-1,6014E-04
727,10	1,3434E-04
727,43	-1,3326E-04
727,77	8,0177E-05
728,10	-4,4757E-05
728,43	2,3947E-04
728,76	-8,9838E-06
729,10	0,0000E00
729,43	-2,2239E-04
729,76	-1,1721E-04
730,09	-1,0096E-04
730,43	-8,1622E-05
730,76	-2,0853E-04
731,09	1,2736E-04
731,42	-8,2117E-05
731,76	1,1896E-04
732,09	-1,8533E-04
732,42	1,5647E-04
732,75	1,3835E-04
733,09	3,5296E-04
733,42	1,0320E-04
733,75	0,0000E00
734,08	2,8095E-05
734,41	-1,6974E-04
734,75	6,5406E-05
735,08	1,2205E-04
735,41	-1,9981E-04
735,74	3,8168E-05
736,07	1,0574E-04
736,41	2,9042E-05
736,74	1,3474E-04
737,07	-5,7682E-05
737,40	-6,7605E-05
737,73	-9,6207E-06
738,06	-3,2253E-04
738,40	2,8963E-05
738,73	2,5322E-04
739,06	1,2826E-04
739,39	-7,8618E-05
739,72	4,2447E-04
740,05	-2,9452E-04
740,38	-1,1005E-04
740,72	-3,7870E-04
741,05	3,2090E-04
741,38	2,5151E-04
741,71	2,4264E-04
742,04	3,3384E-04
742,37	2,7640E-04
742,70	2,5508E-04
743,03	-1,0197E-04
743,36	-3,1794E-04
743,69	4,2354E-04
744,02	1,0351E-04
744,36	1,0360E-05
744,69	-1,6570E-04
745,02	-2,0772E-05
745,35	-1,6680E-04
745,68	-1,9983E-04
746,01	1,0686E-05
746,34	-2,2107E-04
746,67	-1,2864E-04
747,00	2,1289E-04
747,33	-2,5888E-04
747,66	-1,7256E-04
747,99	-2,1700E-05
748,32	7,5526E-05
748,65	-3,0422E-04
748,98	3,2539E-05
749,31	-2,4033E-04
749,64	5,4706E-05
749,97	-2,9734E-04
750,30	3,5232E-04
750,63	-4,4629E-05
750,96	6,7146E-05
751,29	1,1297E-04
751,62	1,7874E-04
751,95	1,2447E-04
752,28	5,6644E-05
752,61	-4,5392E-05
752,94	2,1754E-04
753,27	-2,2975E-05
753,60	-3,2111E-04
753,92	-1,1500E-04
754,25	2,3223E-04
754,58	1,2885E-04
754,91	8,1721E-05
755,24	-5,3612E-04
755,57	2,2338E-04
755,90	9,4356E-05
756,23	1,1818E-05
756,56	7,0869E-05
756,89	2,7765E-04
757,22	5,5820E-04
757,54	2,8587E-04
757,87	5,3095E-04
758,20	2,6473E-04
758,53	2,5458E-04
758,86	-1,3275E-04
759,19	0,0000E00
759,52	3,0648E-04
759,84	-6,1828E-05
760,17	-3,7133E-05
760,50	-5,3145E-04
760,83	-2,3596E-04
761,16	1,2794E-05
761,49	3,6665E-04
761,81	-1,7595E-04
762,14	5,1049E-05
762,47	-5,4789E-04
762,80	2,6697E-04
763,13	2,5652E-04
763,45	1,8068E-04
763,78	-1,7928E-04
764,11	1,2895E-05
764,44	2,5915E-05
764,77	-1,5722E-04
765,09	-5,0562E-04
765,42	-2,7540E-04
765,75	2,2409E-04
766,08	-2,6468E-04
766,40	1,9858E-04
766,73	3,7432E-04
767,06	-3,4326E-04
767,39	-4,6905E-04
767,71	2,8174E-04
768,04	4,0232E-05
768,37	1,6307E-04
768,70	0,0000E00
769,02	1,2330E-04
769,35	-1,6530E-04
769,68	2,0616E-04
770,00	-8,2421E-05
770,33	5,5141E-05
770,66	1,2503E-04
770,99	1,1210E-04
771,31	-3,9116E-04
771,64	1,1293E-04
771,97	1,2670E-04
772,29	-2,8599E-05
772,62	-4,8307E-04
772,95	7,1610E-05
773,27	5,9458E-04
773,60	2,0099E-04
773,93	-3,8706E-04
774,25	4,7149E-04
774,58	-5,1018E-04
774,90	1,7663E-04
775,23	6,6419E-04
775,56	-7,4371E-05
775,88	2,2219E-04
776,21	-3,5448E-04
776,54	-2,5183E-04
776,86	-5,1941E-04
777,19	2,9940E-04
777,51	5,5694E-04
777,84	-1,4967E-04
778,16	1,8158E-04
778,49	3,0439E-04
778,82	-1,5123E-04
779,14	-3,7833E-04
779,47	-4,1319E-04
779,79	-6,1526E-05
780,12	-1,7060E-04
780,44	2,0083E-04
780,77	-2,6922E-04
781,10	-3,1196E-04
781,42	4,3662E-04
781,75	1,7317E-04
782,07	7,9797E-05
782,40	-6,3592E-05
782,72	3,8351E-04
783,05	-1,9269E-04
783,37	5,5185E-04
783,70	2,2889E-04
784,02	-6,1237E-04
784,35	1,6138E-04
784,67	-1,3058E-04
785,00	1,3141E-04
785,32	4,9684E-05
785,65	1,6483E-04
785,97	3,9939E-04
786,30	1,6712E-05
786,62	1,6530E-05
786,94	-5,0179E-04
787,27	-6,0465E-04
787,59	6,8331E-05
787,92	0,0000E00
788,24	1,9786E-04
788,57	3,9185E-04
788,89	2,2042E-04
789,22	-3,3911E-05
789,54	-4,6874E-04
789,86	1,8574E-04
790,19	2,4036E-04
790,51	5,8910E-04
790,84	2,7299E-04
791,16	3,9402E-04
791,48	-2,9093E-04
791,81	5,1295E-05
792,13	4,2679E-04
792,45	2,5929E-04
792,78	3,7474E-04
793,10	-1,1886E-04
793,43	-3,3928E-04
793,75	-3,6079E-04
794,07	1,3777E-04
794,40	0,0000E00
794,72	2,5719E-04
795,04	-1,1953E-04
795,37	1,6923E-05
795,69	3,4166E-05
796,01	-1,6682E-05
796,34	-1,3531E-04
796,66	-4,4449E-04
796,98	6,7580E-05
797,30	-3,5943E-04
797,63	1,5204E-04
797,95	-3,1771E-04
798,27	8,4413E-05
798,60	3,8375E-04
798,92	-1,5310E-04
799,24	1,6741E-05
799,56	0,0000E00
799,89	-1,5219E-04
800,21	1,6825E-05
800,53	4,3454E-04
800,85	-3,8748E-04
801,18	1,1751E-04
801,50	-4,7457E-04
801,82	0,0000E00
802,14	-1,3633E-04
802,47	1,3652E-04
802,79	1,6889E-04
803,11	1,7020E-05
803,43	-1,8513E-04
803,75	-1,7013E-05
804,08	-2,5760E-04
804,40	-5,1117E-05
804,72	-2,5257E-04
805,04	6,5205E-04
805,36	1,3700E-04
805,69	4,9573E-04
806,01	1,6992E-05
806,33	1,2074E-04
806,65	1,0360E-04
806,97	1,7326E-04
807,29	2,7731E-04
807,62	2,3891E-04
807,94	4,5014E-04
808,26	-9,8754E-04
808,58	1,0516E-04
808,90	3,5256E-04
809,22	-5,3372E-05
809,54	1,2259E-04
809,86	1,0671E-04
810,18	-2,8462E-04
810,51	-1,7556E-05
810,83	-6,7036E-03
811,15	-5,1701E-04
811,47	4,1467E-04
811,79	2,6612E-04
812,11	1,7819E-04
812,43	-7,1730E-05
812,75	3,9884E-04
813,07	-7,0550E-04
813,39	-9,0108E-05
813,71	-1,4671E-04
814,03	1,0835E-04
814,35	6,9346E-04
814,67	-9,0638E-05
814,99	4,2324E-04
815,31	3,8737E-04
815,64	0,0000E00
815,96	9,1617E-05
816,28	-4,2362E-04
816,60	3,5448E-04
816,92	-5,4746E-05
817,24	-5,7833E-04
817,56	1,3093E-04
817,88	-3,0395E-04
818,19	-5,6401E-05
818,51	-3,4146E-04
818,83	1,8962E-05
819,15	8,2859E-04
819,47	-5,9262E-04
819,79	-3,8418E-04
820,11	-2,8691E-04
820,43	-6,1950E-04
820,75	1,9552E-05
821,07	1,9572E-05
821,39	-9,7669E-05
821,71	1,9449E-05
822,03	9,9288E-05
822,35	2,7703E-04
822,67	-3,5472E-04
822,99	-4,2028E-04
823,31	4,3322E-04
823,62	-3,5751E-04
823,94	-2,0194E-05
824,26	6,0664E-05
824,58	4,2090E-04
824,90	-3,4326E-04
825,22	9,8610E-04
825,54	5,1404E-04
825,86	3,3016E-04
826,17	1,6548E-04
826,49	-8,2238E-05
826,81	2,2853E-04
827,13	-8,2681E-05
827,45	4,7792E-04
827,77	-1,8966E-04
828,08	1,0476E-04
828,40	5,0594E-04
828,72	9,2244E-04
829,04	1,2300E-03
829,36	1,0550E-04
829,67	4,4877E-04
829,99	8,7135E-04
830,31	4,7444E-04
830,63	2,1735E-05
830,95	5,1940E-04
831,26	1,7319E-04
831,58	1,7496E-04
831,90	-3,0969E-04
832,22	-4,2168E-04
832,53	1,5765E-04
832,85	2,0282E-04
833,17	3,5383E-04
833,49	-5,8327E-04
833,80	3,1832E-04
834,12	5,7216E-04
834,44	-1,6090E-04
834,76	5,4398E-04
835,07	-4,3953E-04
835,39	-3,6785E-04
835,71	-4,6386E-05
836,02	-6,6912E-04
836,34	-3,0060E-04
836,66	5,0934E-04
836,97	3,9247E-04
837,29	6,0816E-04
837,61	2,8316E-04
837,93	0,0000E00
838,24	-2,1271E-04
838,56	3,7788E-04
838,88	1,1931E-04
839,19	1,8907E-04
839,51	4,5275E-04
839,82	3,1420E-04
840,14	-9,5757E-05
840,46	-3,8715E-04
840,77	-7,0601E-04
841,09	-6,1273E-04
841,41	-2,9116E-04
841,72	-1,2337E-04
842,04	2,2246E-04
842,35	-2,4753E-05
842,67	5,2279E-04
842,99	1,5107E-04
843,30	4,7159E-04
843,62	2,5262E-05
843,93	-2,5548E-04
844,25	-4,9814E-05
844,56	-2,5883E-05
844,88	5,6737E-04
845,20	2,8078E-04
845,51	5,3898E-04
845,83	-4,3610E-04
846,14	-8,8535E-04
846,46	5,1557E-05
846,77	3,3787E-04
847,09	-2,6490E-05
847,40	-7,3502E-04
847,72	-7,9165E-05
848,03	2,6586E-04
848,35	-2,6681E-04
848,66	-4,5822E-04
848,98	9,7122E-04
849,29	-8,0804E-05
849,61	5,4861E-05
849,92	-1,3317E-03
850,24	0,0000E00
850,55	-1,0559E-03
850,87	-7,4148E-04
851,18	4,1266E-04
851,50	4,7086E-04
851,81	-5,8698E-04
852,12	-5,8604E-04
852,44	2,5354E-04
852,75	-2,8236E-04
853,07	8,9212E-04
853,38	9,4179E-04
853,70	-2,2909E-04
854,01	4,9269E-04
854,32	2,8859E-04
854,64	6,4307E-04
854,95	8,7133E-05
855,27	5,8235E-04
855,58	7,2214E-04
855,89	8,9390E-04
856,21	-4,1138E-04
856,52	3,2327E-04
856,83	-5,3813E-04
857,15	-3,5526E-04
857,46	4,8151E-04
857,77	0,0000E00
858,09	-1,5005E-04
858,40	-6,0457E-04
858,71	-1,6867E-03
859,03	-5,4504E-04
859,34	4,9493E-04
859,65	3,6861E-04
859,97	-4,3364E-04
860,28	1,0379E-03
860,59	-2,8043E-04
860,91	-4,1213E-04
861,22	8,5686E-04
861,53	-2,8787E-04
861,84	-8,3314E-04
862,16	9,4029E-04
862,47	0,0000E00
862,78	-5,5440E-04
863,10	-8,1004E-04
863,41	-1,6260E-04
863,72	-3,5974E-04
864,03	6,6403E-05
864,35	2,6199E-04
864,66	1,0915E-03
864,97	-6,9150E-04
865,28	1,3372E-04
865,59	6,5047E-04
865,91	-1,6826E-04
866,22	-1,2585E-03
866,53	-8,1089E-04
866,84	-1,2264E-03
867,15	4,7497E-04
867,47	1,0697E-03
867,78	-1,2799E-03
868,09	1,0482E-04
868,40	1,0542E-04
868,71	-1,0834E-03
869,02	-1,5131E-03
869,34	3,5917E-05
869,65	-1,2377E-03
869,96	7,2108E-04
870,27	1,4488E-04
870,58	-2,1857E-04
870,89	-6,1878E-04
871,20	-2,8833E-04
871,52	-8,4276E-04
871,83	-1,3882E-03
872,14	-1,1110E-03
872,45	-7,3973E-04
872,76	-9,3232E-04
873,07	-1,4961E-04
873,38	1,6168E-03
873,69	1,8936E-04
874,00	0,0000E00
874,31	3,4604E-04
874,62	-7,6088E-04
874,94	1,1457E-04
875,25	4,9806E-04
875,56	1,1488E-03
875,87	1,3279E-03
876,18	1,2897E-03
876,49	1,2524E-03
876,80	1,2323E-03
877,11	3,9477E-05
877,42	5,5240E-04
877,73	1,1966E-04
878,04	-9,5323E-04
878,35	-1,6025E-03
878,66	-2,8330E-04
878,97	-4,4039E-04
879,28	3,6437E-04
879,59	5,6657E-04
879,90	1,4165E-03
880,21	-9,0349E-04
880,52	-4,9420E-04
880,83	-2,0489E-04
881,14	5,7387E-04
881,45	6,6030E-04
881,76	-8,2117E-05
882,07	-1,6399E-04
882,37	-4,0838E-04
882,68	1,1340E-03
882,99	9,8596E-04
883,30	1,2674E-03
883,61	4,5232E-04
883,92	-4,1142E-05
884,23	7,7436E-04
884,54	4,1802E-04
884,85	6,5094E-04
885,16	1,4504E-03
885,47	-8,6133E-04
885,77	-2,0432E-04
886,08	-9,6174E-04
886,39	-5,3335E-04
886,70	-1,3554E-03
887,01	-4,0973E-04
887,32	-2,8639E-04
887,63	-1,4066E-03
887,93	-9,3552E-04
888,24	-3,2648E-04
888,55	-4,5622E-04
888,86	-9,0979E-04
889,17	-4,0989E-04
889,47	1,1289E-03
889,78	-2,0382E-04
890,09	-4,1415E-04
890,40	0,0000E00
890,71	-9,1089E-04
891,01	-3,2137E-03
891,32	9,8123E-04
891,63	-8,2955E-05
891,94	-5,0390E-04
892,25	1,2187E-03
892,55	8,1929E-04
892,86	-2,8877E-04
893,17	1,7160E-03
893,48	4,1629E-04
893,78	-1,6664E-04
894,09	-1,6725E-04
894,40	-2,0008E-03
894,70	1,2516E-03
895,01	-2,0667E-04
895,32	1,0264E-03
895,63	-1,1318E-03
895,93	-8,4455E-04
896,24	-2,9236E-04
896,55	2,9298E-04
896,85	-4,1420E-05
897,16	3,7720E-04
897,47	-1,0901E-03
897,77	8,3110E-04
898,08	4,6508E-04
898,39	-3,3841E-04
898,69	1,2692E-04
899,00	5,9553E-04
899,31	6,3793E-04
899,61	1,6057E-03
899,92	3,7982E-04
900,23	-3,8655E-04
900,53	-5,2110E-04
900,84	-6,0146E-04
901,14	0,0000E00
901,45	-5,1361E-04
901,76	-4,3075E-05
902,06	-2,5793E-04
902,37	1,8124E-03
902,67	4,7763E-04
902,98	-2,5950E-04
903,29	1,5718E-03
903,59	1,7896E-03
903,90	-2,8953E-03
904,20	1,3235E-04
904,51	-1,6341E-03
904,81	3,1167E-04
905,12	3,5141E-04
905,42	9,3601E-04
905,73	2,0979E-03
906,03	-2,2788E-04
906,34	-4,0659E-04
906,64	7,3207E-04
906,95	-4,0652E-04
907,25	-1,0169E-03
907,56	-6,5081E-04
907,86	8,7987E-04
908,17	-9,2427E-04
908,47	-6,0981E-04
908,78	3,7716E-04
909,08	-7,0856E-04
909,39	-1,0421E-03
909,69	-1,1459E-03
910,00	-1,8682E-03
910,30	-7,6997E-04
910,61	-7,7582E-04
910,91	4,7744E-05
911,21	1,2696E-03
911,52	-1,8424E-03
911,82	-7,5166E-04
912,13	-1,8474E-03
912,43	9,4666E-04
912,74	2,9907E-04
913,04	-5,0133E-04
913,34	4,0301E-04
913,65	-1,2198E-03
913,95	-3,5516E-04
914,25	1,0895E-03
914,56	-1,3047E-03
914,86	9,9959E-04
915,17	-4,2104E-04
915,47	1,6759E-03
915,77	-6,9907E-04
916,08	-1,0617E-04
916,38	3,7309E-04
916,68	-3,7493E-04
916,99	1,0126E-03
917,29	-8,6177E-04
917,59	-2,1892E-04
917,90	5,9477E-04
918,20	1,0792E-03
918,50	-8,1818E-04
918,80	-1,2592E-03
919,11	6,0794E-04
919,41	5,6468E-05
919,71	1,6979E-04
920,02	2,1872E-03
920,32	1,5108E-03
920,62	4,6286E-04
920,92	3,0114E-03
921,23	6,2830E-04
921,53	4,0962E-04
921,83	6,9627E-04
922,13	7,5581E-04
922,44	0,0000E00
922,74	0,0000E00
923,04	8,2754E-04
923,34	-1,1958E-04
923,64	1,7061E-03
923,95	1,3975E-03
924,25	-1,1527E-03
924,55	1,7367E-03
924,85	-7,3938E-04
925,15	-4,9025E-04
925,46	1,8650E-04
925,76	1,5721E-03
926,06	1,3147E-03
926,36	2,2061E-03
926,66	1,9117E-04
926,96	8,9843E-04
927,26	-9,7723E-04
927,57	-2,1827E-03
927,87	-2,0183E-03
928,17	5,9823E-04
928,47	-7,8224E-04
928,77	-1,7122E-03
929,07	-2,1426E-03
929,37	4,0433E-04
929,67	-2,8537E-03
929,98	4,1528E-03
930,28	1,3809E-04
930,58	-6,8434E-04
930,88	-1,7026E-03
931,18	6,9584E-04
931,48	2,8190E-04
931,78	4,3058E-04
932,08	2,1397E-04
932,38	-1,0656E-03
932,68	-1,8114E-03
932,98	-2,1972E-03
933,28	-7,3268E-05
933,58	2,8219E-03
933,88	-2,6830E-03
934,18	6,5920E-04
934,48	-2,4757E-03
934,78	-2,1910E-03
935,08	-3,7299E-04
935,38	1,5177E-03
935,68	-7,8245E-04
935,98	-2,3820E-04
936,28	8,6918E-04
936,58	-2,0527E-03
936,88	1,1798E-03
937,18	-3,2287E-04
937,48	-6,4246E-04
937,78	-8,1234E-05
938,08	-1,4860E-03
938,38	-4,1071E-04
938,68	-1,1534E-03
938,98	8,3101E-05
939,28	3,2883E-04
939,57	-1,8140E-03
939,87	2,4833E-03
940,17	-2,5962E-03
940,47	2,3486E-03
940,77	-3,9535E-03
941,07	-3,4591E-03
941,37	-5,9757E-04
941,67	4,2597E-04
941,97	2,0584E-03
942,26	-3,6775E-03
942,56	1,4118E-03
942,86	-7,1882E-04
943,16	1,8174E-04
943,46	-3,6325E-04
943,76	1,2717E-03
944,06	3,2601E-03
944,35	5,3641E-03
944,65	-5,7268E-04
944,95	5,6174E-04
945,25	1,8917E-04
945,55	-3,9173E-03
945,84	-1,5163E-03
946,14	1,0635E-03
946,44	1,3277E-03
946,74	-9,7399E-05
947,03	-8,0374E-04
947,33	2,1739E-03
947,63	1,9917E-04
947,93	-1,6979E-03
948,23	5,0867E-04
948,52	-3,4215E-03
948,82	-3,4708E-03
949,12	-3,1696E-04
949,41	-1,5461E-03
949,71	1,1543E-03
950,01	1,1596E-03
950,31	-1,1807E-03
950,60	1,5962E-03
950,90	6,4244E-04
951,20	5,3672E-04
951,49	7,6407E-04
951,79	4,0277E-03
952,09	-2,2364E-03
952,38	-1,1273E-03
952,68	-1,2378E-03
952,98	1,9635E-03
953,27	-2,1605E-03
953,57	1,1301E-03
953,87	-4,6142E-04
954,16	1,0421E-03
954,46	-9,1853E-04
954,76	-2,1107E-03
955,05	-1,9589E-03
955,35	-2,6263E-03
955,64	2,2848E-03
955,94	9,8458E-04
956,24	3,6806E-04
956,53	-2,4511E-04
956,83	-8,5498E-04
957,12	-1,2338E-03
957,42	-1,0016E-03
957,72	-1,2801E-04
958,01	-2,0539E-03
958,31	-2,0459E-03
958,60	-6,2006E-03
958,90	-3,8617E-03
959,19	8,1635E-04
959,49	7,9304E-04
959,78	5,3785E-03
960,08	-2,6622E-04
960,37	8,0300E-04
960,67	-1,3427E-03
960,96	-1,1120E-03
961,26	2,0514E-03
961,55	1,6412E-03
961,85	3,2037E-03
962,14	1,8604E-03
962,44	-1,5892E-03
962,73	-1,4340E-03
963,03	3,8394E-03
963,32	0,0000E00
963,62	-2,9683E-04
963,91	2,0598E-03
964,21	-3,8385E-03
964,50	-1,5115E-03
964,80	-3,7893E-03
965,09	4,5069E-03
965,38	5,8192E-03
965,68	-9,1288E-04
965,97	-3,1172E-03
966,27	-2,0328E-03
966,56	-4,2543E-03
966,85	-3,0440E-03
967,15	-5,0526E-03
967,44	-3,2769E-03
967,74	5,8693E-03
968,03	-2,2473E-03
968,32	5,4705E-03
968,62	1,8651E-03
968,91	-3,3853E-04
969,20	2,1436E-03
969,50	3,3632E-03
969,79	2,2109E-03
970,08	5,1811E-04
970,38	-3,6350E-03
970,67	1,5766E-03
970,96	-3,5288E-03
971,26	-3,5369E-03
971,55	-5,2721E-03
971,84	-2,3354E-03
972,13	-2,1385E-03
972,43	5,0981E-03
972,72	1,6523E-03
973,01	2,2668E-03
973,31	2,4298E-03
973,60	5,8163E-03
973,89	3,9370E-03
974,18	1,8956E-04
974,48	-3,0697E-03
974,77	-7,7613E-04
975,06	0,0000E00
975,35	3,8225E-03
975,64	2,6051E-03
975,94	-6,0883E-03
976,23	-5,5746E-03
976,52	-2,8135E-03
976,81	-7,8329E-03
977,10	-8,3204E-04
977,40	3,5468E-03
977,69	-4,8573E-03
977,98	-7,8069E-03
978,27	-5,7704E-03
978,56	1,0873E-03
978,86	2,0111E-03
979,15	1,9733E-03
979,44	2,2489E-03
979,73	-6,5493E-03
980,02	-6,9033E-04
980,31	-9,3026E-04
980,60	-2,3271E-03
980,89	-5,0300E-03
981,19	-2,8969E-03
981,48	-1,6672E-03
981,77	-3,8887E-03
982,06	1,6903E-03
982,35	1,9049E-03
982,64	2,9397E-03
982,93	5,8382E-03
983,22	-2,4761E-04
983,51	-3,9665E-03
983,80	-3,0942E-03
984,09	5,0033E-04
984,38	-7,8798E-03
984,67	-6,3136E-03
984,96	-7,8736E-04
985,25	-1,9163E-03
985,55	5,6345E-03
985,84	-7,9779E-03
986,13	-1,9388E-03
986,42	-2,5257E-03
986,71	-5,5395E-04
987,00	5,7202E-03
987,29	-5,0416E-03
987,58	8,9573E-03
987,86	6,3854E-03
988,15	8,0180E-03
988,44	2,4075E-03
988,73	8,9375E-03
989,02	-3,5606E-03
989,31	6,8249E-03
989,60	-5,2776E-03
989,89	-1,4794E-03
990,18	8,6603E-03
990,47	9,2145E-04
990,76	-9,5321E-04
991,05	1,3020E-03
991,34	-1,6215E-03
991,63	-4,4816E-03
991,92	-1,2794E-03
992,20	1,2064E-02
992,49	5,8366E-03
992,78	2,3117E-03
993,07	6,6266E-03
993,36	9,1794E-03
993,65	1,4207E-02
993,94	7,7341E-03
994,22	5,6500E-03
994,51	-3,5807E-03
994,80	-6,4900E-03
995,09	-5,5300E-03
995,38	-4,7265E-03
995,67	3,6525E-04
995,95	-4,5197E-03
996,24	-1,8864E-02
996,53	-7,4615E-03
996,82	-1,7832E-02
997,11	2,3228E-03
997,39	2,2314E-03
997,68	-1,2417E-03
997,97	-7,2002E-03
998,26	-5,3724E-03
998,54	-9,7048E-03
998,83	-3,9827E-03
999,12	-1,2264E-03
999,41	2,0217E-03
999,69	1,4934E-02
999,98	-8,0240E-03
1000,27	1,0283E-02
1000,56	6,8466E-03
1000,84	-1,0257E-02
1001,13	-4,3819E-03
1001,42	-1,0432E-02
1001,70	-2,3743E-02
1001,99	9,7961E-03
1002,28	2,3173E-03
1002,56	-1,0929E-02
1002,85	-1,9236E-03
1003,14	2,3577E-02
1003,42	7,8886E-03
1003,71	-1,4332E-02
1004,00	1,0806E-02
1004,28	1,5449E-03
1004,57	1,6543E-02
1004,86	-4,9728E-04
1005,14	5,6055E-03
1005,43	-8,9429E-03
1005,72	-1,7518E-02
1006,00	2,1479E-03
1006,29	-2,9083E-03
1006,57	-1,5189E-02
1006,86	5,4608E-04
1007,15	2,3422E-03
1007,43	1,4684E-02
1007,72	3,4908E-03
1008,00	2,6878E-02
1008,29	1,5945E-02
1008,57	-2,4567E-03
1008,86	-1,2242E-02
1009,14	-2,3452E-03
1009,43	-6,3886E-03
1009,71	1,3098E-02
1010,00	1,0079E-02
1010,29	1,5751E-02
1010,57	-1,2249E-03
1010,86	2,6336E-03
1011,14	-2,7349E-03
1011,43	8,7779E-03
1011,71	-7,5070E-03
1011,99	-1,0296E-02
1012,28	1,6444E-02
1012,56	-1,5081E-02
1012,85	-6,3298E-03
1013,13	-1,7539E-02
1013,42	1,2710E-02
1013,70	2,0252E-02
1013,99	3,0968E-03
1014,27	3,5469E-03
1014,56	1,1442E-02
1014,84	1,0393E-02
1015,12	-7,6203E-04
1015,41	-1,6910E-02
1015,69	4,8259E-03
1015,98	1,6534E-02
1016,26	8,1625E-03
1016,54	7,6029E-04
1016,83	2,7293E-02
1017,11	1,9210E-02
1017,39	2,3315E-02
1017,68	9,7058E-03
1017,96	7,0348E-03
1018,25	0,0000E00
1018,53	-1,7971E-02
1018,81	1,7076E-03
1019,10	-2,2492E-02
1019,38	6,3470E-03
1019,66	-2,9377E-02
1019,94	-8,3448E-03
1020,23	1,0959E-02
1020,51	-7,0660E-03
1020,79	-1,1162E-02
1021,08	-9,5292E-04
1021,36	4,7860E-03
1021,64	-2,2569E-02
1021,93	-4,0261E-03
1022,21	-2,7637E-02
1022,49	-2,7637E-02
>>>>>End Processed Spectral Data<<<<<
