SpectraSuite Data File
++++++++++++++++++++++++++++++++++++
Date: Thu Apr 21 10:48:17 EEST 2016
User: mkilpela
Dark Spectrum Present: Yes
Reference Spectrum Present: No
Number of Sampled Component Spectra: 1
Spectrometers: JAZA2845
Integration Time (usec): 183226 (JAZA2845)
Spectra Averaged: 1 (JAZA2845)
Boxcar Smoothing: 0 (JAZA2845)
Correct for Electrical Dark: No (JAZA2845)
Strobe/Lamp Enabled: No (JAZA2845)
Correct for Detector Non-linearity: No (JAZA2845)
Correct for Stray Light: No (JAZA2845)
Number of Pixels in Processed Spectrum: 2048
>>>>>Begin Processed Spectral Data<<<<<
340,21	0,0000E00
340,58	0,0000E00
340,96	0,0000E00
341,33	0,0000E00
341,70	0,0000E00
342,07	-0,0000E00
342,45	-0,0000E00
342,82	0,0000E00
343,19	0,0000E00
343,57	0,0000E00
343,94	0,0000E00
344,31	-0,0000E00
344,68	0,0000E00
345,06	0,0000E00
345,43	0,0000E00
345,80	0,0000E00
346,18	-0,0000E00
346,55	0,0000E00
346,92	0,0000E00
347,29	-0,0000E00
347,67	0,0000E00
348,04	-0,0000E00
348,41	-0,0000E00
348,78	-0,0000E00
349,16	-0,0000E00
349,53	0,0000E00
349,90	0,0000E00
350,27	1,7723E-02
350,64	-1,2599E-02
351,02	-7,1341E-03
351,39	-8,8586E-04
351,76	-1,6195E-03
352,13	6,8519E-03
352,51	3,5518E-04
352,88	3,7649E-03
353,25	-1,2893E-02
353,62	1,4532E-03
353,99	8,1960E-03
354,37	3,5868E-03
354,74	-1,7640E-03
355,11	5,1197E-03
355,48	3,2265E-03
355,85	9,4647E-03
356,23	7,2650E-03
356,60	5,1132E-04
356,97	3,4879E-03
357,34	-4,9836E-02
357,71	3,7385E-04
358,08	8,6991E-04
358,46	-4,2615E-03
358,83	3,4054E-03
359,20	-7,7146E-04
359,57	6,8539E-04
359,94	0,0000E00
360,31	-1,1380E-03
360,69	1,0357E-03
361,06	-1,3343E-03
361,43	2,0181E-03
361,80	-3,6434E-03
362,17	7,4713E-03
362,54	-1,4951E-03
362,91	-2,2881E-03
363,29	4,2664E-03
363,66	-3,4936E-02
364,03	8,9166E-03
364,40	2,0849E-03
364,77	1,5814E-03
365,14	9,8419E-04
365,51	0,0000E00
365,88	9,1110E-03
366,26	5,0125E-03
366,63	1,8072E-03
367,00	4,9330E-03
367,37	-9,3186E-04
367,74	1,7269E-03
368,11	4,0961E-03
368,48	1,2830E-02
368,85	-7,0220E-03
369,22	1,0296E-03
369,59	-9,4992E-04
369,97	-8,2953E-03
370,34	-7,3132E-03
370,71	-7,1540E-04
371,08	-1,1348E-03
371,45	-2,2396E-03
371,82	-5,2803E-04
372,19	-5,5093E-04
372,56	5,8357E-03
372,93	6,8117E-03
373,30	5,4339E-03
373,67	-1,5514E-03
374,04	-7,1539E-04
374,41	-3,8047E-03
374,78	2,8318E-03
375,15	-2,4771E-03
375,52	1,9959E-03
375,89	-1,7306E-03
376,26	6,7242E-03
376,63	7,1489E-03
377,00	2,2107E-03
377,38	8,7516E-04
377,75	0,0000E00
378,12	-2,6772E-03
378,49	-8,7678E-03
378,86	1,6915E-03
379,23	-3,8558E-03
379,60	-1,4766E-03
379,97	4,4166E-03
380,34	1,7953E-03
380,71	2,1704E-03
381,08	-2,0448E-04
381,45	1,0351E-03
381,82	3,1509E-04
382,19	4,7660E-03
382,55	-2,9585E-03
382,92	4,4693E-03
383,29	-9,6448E-03
383,66	-5,3332E-03
384,03	-9,5173E-04
384,40	-1,7569E-04
384,77	-7,2684E-04
385,14	7,1307E-04
385,51	1,6592E-04
385,88	3,3081E-03
386,25	-2,0712E-03
386,62	5,6397E-04
386,99	2,9216E-04
387,36	0,0000E00
387,73	-2,3120E-03
388,10	-1,7980E-03
388,47	-1,0900E-03
388,84	-1,2241E-03
389,21	-3,0173E-03
389,58	3,4797E-03
389,94	-1,1224E-03
390,31	-5,8505E-03
390,68	-1,5958E-03
391,05	-4,6700E-03
391,42	-1,0819E-03
391,79	-1,5119E-03
392,16	2,8361E-03
392,53	2,7836E-03
392,90	3,8478E-03
393,27	3,8707E-03
393,63	2,5458E-03
394,00	6,0208E-03
394,37	5,3009E-03
394,74	8,0479E-03
395,11	1,8575E-03
395,48	-3,8565E-03
395,85	3,1620E-03
396,22	2,5105E-03
396,58	-2,0503E-03
396,95	-9,9735E-04
397,32	-9,8098E-04
397,69	-1,4975E-03
398,06	8,5683E-04
398,43	-2,8501E-03
398,80	-1,6092E-03
399,16	-1,9929E-03
399,53	4,2309E-03
399,90	0,0000E00
400,27	2,8031E-03
400,64	4,0551E-03
401,01	1,0279E-03
401,37	-1,2830E-04
401,74	6,8604E-04
402,11	3,0141E-03
402,48	-7,8176E-04
402,85	2,9508E-03
403,22	-7,3580E-04
403,58	5,5924E-03
403,95	-1,9263E-03
404,32	7,4288E-04
404,69	1,7806E-03
405,06	2,9136E-03
405,42	4,0205E-03
405,79	2,4957E-03
406,16	2,2958E-03
406,53	3,3109E-04
406,89	-1,2014E-03
407,26	1,7513E-03
407,63	1,9987E-03
408,00	2,5681E-03
408,37	4,0658E-03
408,73	4,0694E-03
409,10	1,1371E-03
409,47	1,1868E-03
409,84	5,7550E-03
410,20	1,1612E-03
410,57	-1,3595E-03
410,94	-1,3220E-03
411,31	2,3392E-03
411,67	1,3835E-03
412,04	2,8149E-03
412,41	-7,3496E-04
412,77	2,9665E-03
413,14	9,0404E-04
413,51	7,9129E-04
413,88	1,9132E-03
414,24	1,1421E-03
414,61	4,0133E-03
414,98	-1,0589E-04
415,34	1,9236E-04
415,71	2,0021E-03
416,08	1,3904E-03
416,45	3,0284E-03
416,81	2,0823E-03
417,18	2,3079E-03
417,55	1,1140E-03
417,91	2,5152E-03
418,28	2,8193E-03
418,65	1,8642E-03
419,01	1,3017E-03
419,38	-1,2204E-03
419,75	5,4373E-03
420,11	5,6542E-03
420,48	5,1727E-03
420,85	9,5029E-03
421,21	4,9548E-03
421,58	6,5484E-03
421,95	2,7305E-03
422,31	6,1979E-03
422,68	3,9382E-03
423,05	3,0502E-03
423,41	6,6681E-03
423,78	2,5269E-03
424,15	4,0872E-03
424,51	6,8727E-03
424,88	3,4422E-03
425,24	6,7420E-03
425,61	5,9673E-03
425,98	7,0185E-03
426,34	6,8187E-03
426,71	8,6014E-03
427,07	9,8227E-03
427,44	5,8870E-03
427,81	1,0946E-02
428,17	8,0135E-03
428,54	1,3277E-02
428,90	8,5848E-03
429,27	1,3119E-02
429,64	1,6203E-02
430,00	1,3753E-02
430,37	1,3078E-02
430,73	1,6117E-02
431,10	2,1834E-02
431,46	1,7717E-02
431,83	1,7099E-02
432,20	2,0875E-02
432,56	2,4344E-02
432,93	2,5401E-02
433,29	2,5753E-02
433,66	2,7692E-02
434,02	2,8350E-02
434,39	2,9880E-02
434,75	3,3451E-02
435,12	3,3844E-02
435,49	4,0847E-02
435,85	4,7277E-02
436,22	4,6241E-02
436,58	5,2703E-02
436,95	5,1727E-02
437,31	5,6356E-02
437,68	5,9185E-02
438,04	6,0462E-02
438,41	6,6886E-02
438,77	7,1665E-02
439,14	7,9894E-02
439,50	7,8287E-02
439,87	8,4864E-02
440,23	9,3362E-02
440,60	1,0080E-01
440,96	1,0535E-01
441,33	1,1671E-01
441,69	1,2771E-01
442,06	1,3456E-01
442,42	1,4575E-01
442,78	1,4666E-01
443,15	1,6327E-01
443,51	1,7264E-01
443,88	1,8339E-01
444,24	1,9151E-01
444,61	2,1682E-01
444,97	2,2993E-01
445,34	2,2930E-01
445,70	2,6336E-01
446,07	2,6880E-01
446,43	2,8694E-01
446,79	3,0012E-01
447,16	3,2205E-01
447,52	3,4718E-01
447,89	3,8211E-01
448,25	3,9977E-01
448,62	4,1357E-01
448,98	4,6088E-01
449,34	4,8406E-01
449,71	5,0919E-01
450,07	5,5864E-01
450,44	5,8165E-01
450,80	5,7857E-01
451,16	6,4720E-01
451,53	6,4393E-01
451,89	7,2099E-01
452,25	7,2669E-01
452,62	7,9262E-01
452,98	8,0027E-01
453,35	8,7740E-01
453,71	9,2769E-01
454,07	9,8312E-01
454,44	9,9188E-01
454,80	1,0065E00
455,16	1,0610E00
455,53	1,0729E00
455,89	1,1543E00
456,25	1,1758E00
456,62	1,2183E00
456,98	1,2564E00
457,34	1,2681E00
457,71	1,3035E00
458,07	1,3373E00
458,43	1,4378E00
458,80	1,4225E00
459,16	1,4059E00
459,52	1,4116E00
459,89	1,4567E00
460,25	1,4165E00
460,61	1,4390E00
460,98	1,4790E00
461,34	1,4499E00
461,70	1,4554E00
462,07	1,4620E00
462,43	1,4061E00
462,79	1,4519E00
463,15	1,4320E00
463,52	1,3825E00
463,88	1,4139E00
464,24	1,4040E00
464,61	1,3255E00
464,97	1,3320E00
465,33	1,3096E00
465,69	1,2737E00
466,06	1,2534E00
466,42	1,1843E00
466,78	1,1781E00
467,14	1,1427E00
467,51	1,1405E00
467,87	1,0850E00
468,23	1,0595E00
468,59	1,0213E00
468,95	9,7108E-01
469,32	9,7466E-01
469,68	9,0418E-01
470,04	8,7864E-01
470,40	8,7338E-01
470,77	8,3743E-01
471,13	8,1921E-01
471,49	7,9332E-01
471,85	7,6179E-01
472,21	7,1874E-01
472,58	7,1726E-01
472,94	6,7783E-01
473,30	6,4889E-01
473,66	6,4702E-01
474,02	6,0755E-01
474,39	6,1174E-01
474,75	5,7970E-01
475,11	5,4593E-01
475,47	5,2725E-01
475,83	5,1757E-01
476,19	4,8675E-01
476,56	4,7225E-01
476,92	4,7768E-01
477,28	4,5051E-01
477,64	4,4478E-01
478,00	4,2386E-01
478,36	4,0840E-01
478,72	3,8098E-01
479,09	3,7382E-01
479,45	3,6673E-01
479,81	3,6084E-01
480,17	3,4773E-01
480,53	3,2637E-01
480,89	3,2568E-01
481,25	3,1192E-01
481,61	2,9178E-01
481,97	2,9682E-01
482,34	2,6813E-01
482,70	2,6566E-01
483,06	2,5320E-01
483,42	2,5026E-01
483,78	2,3670E-01
484,14	2,2522E-01
484,50	2,1778E-01
484,86	2,0900E-01
485,22	2,0769E-01
485,58	1,9293E-01
485,94	1,8402E-01
486,31	1,7812E-01
486,67	1,6981E-01
487,03	1,6569E-01
487,39	1,6448E-01
487,75	1,5195E-01
488,11	1,4904E-01
488,47	1,4499E-01
488,83	1,3774E-01
489,19	1,3217E-01
489,55	1,2702E-01
489,91	1,2309E-01
490,27	1,1821E-01
490,63	1,1221E-01
490,99	1,0792E-01
491,35	1,0453E-01
491,71	9,9491E-02
492,07	9,7158E-02
492,43	9,6178E-02
492,79	9,0466E-02
493,15	8,7482E-02
493,51	8,7114E-02
493,87	8,4933E-02
494,23	8,0036E-02
494,59	7,5238E-02
494,95	7,4367E-02
495,31	6,9742E-02
495,67	6,9043E-02
496,03	6,6122E-02
496,39	6,4462E-02
496,75	6,4399E-02
497,11	5,9368E-02
497,47	5,7814E-02
497,83	5,2707E-02
498,19	5,3524E-02
498,55	5,2308E-02
498,91	4,9496E-02
499,27	4,9322E-02
499,63	4,5698E-02
499,98	4,5861E-02
500,34	4,2851E-02
500,70	4,3779E-02
501,06	4,1732E-02
501,42	4,0777E-02
501,78	3,8018E-02
502,14	3,7860E-02
502,50	3,6163E-02
502,86	3,3102E-02
503,22	3,3826E-02
503,58	3,1721E-02
503,94	2,9336E-02
504,29	2,9851E-02
504,65	2,8739E-02
505,01	2,6299E-02
505,37	2,6955E-02
505,73	2,5127E-02
506,09	2,4158E-02
506,45	2,2772E-02
506,81	2,3898E-02
507,16	2,1876E-02
507,52	2,0841E-02
507,88	2,0258E-02
508,24	2,1200E-02
508,60	2,0115E-02
508,96	1,8201E-02
509,32	1,7234E-02
509,67	1,5972E-02
510,03	1,7177E-02
510,39	1,6293E-02
510,75	1,4696E-02
511,11	1,4303E-02
511,47	1,4196E-02
511,82	1,2920E-02
512,18	1,3606E-02
512,54	1,2868E-02
512,90	1,2037E-02
513,26	1,1626E-02
513,61	1,1481E-02
513,97	1,1628E-02
514,33	1,0882E-02
514,69	1,0422E-02
515,05	1,0319E-02
515,40	9,7939E-03
515,76	1,0471E-02
516,12	8,9918E-03
516,48	8,8374E-03
516,83	1,0331E-02
517,19	9,3848E-03
517,55	8,7189E-03
517,91	8,8654E-03
518,26	7,4167E-03
518,62	6,6448E-03
518,98	7,5119E-03
519,34	6,6403E-03
519,69	7,2223E-03
520,05	6,0770E-03
520,41	6,7961E-03
520,77	5,8221E-03
521,12	5,4101E-03
521,48	6,1081E-03
521,84	6,5070E-03
522,19	5,1288E-03
522,55	5,9708E-03
522,91	4,6445E-03
523,27	4,6153E-03
523,62	5,2601E-03
523,98	4,7385E-03
524,34	4,1096E-03
524,69	4,2993E-03
525,05	5,0072E-03
525,41	4,1137E-03
525,76	3,7867E-03
526,12	2,9040E-03
526,48	4,0290E-03
526,83	4,3324E-03
527,19	3,7099E-03
527,55	3,6044E-03
527,90	3,2016E-03
528,26	4,0484E-03
528,62	2,9303E-03
528,97	4,1248E-03
529,33	3,2742E-03
529,69	2,6235E-03
530,04	3,0566E-03
530,40	2,7349E-03
530,76	3,8487E-03
531,11	2,7837E-03
531,47	3,6203E-03
531,82	2,7364E-03
532,18	3,3621E-03
532,54	3,0769E-03
532,89	2,3862E-03
533,25	2,3824E-03
533,60	2,0281E-03
533,96	1,5719E-03
534,32	2,6732E-03
534,67	2,5903E-03
535,03	2,7781E-03
535,38	2,8875E-03
535,74	2,2583E-03
536,10	1,3172E-03
536,45	6,6152E-04
536,81	1,8140E-03
537,16	2,2739E-03
537,52	1,0027E-03
537,87	1,9795E-03
538,23	8,6440E-04
538,58	1,7825E-03
538,94	1,4319E-03
539,30	1,7229E-03
539,65	1,1470E-03
540,01	1,3989E-03
540,36	5,7562E-04
540,72	8,7764E-04
541,07	1,3474E-03
541,43	2,0212E-03
541,78	1,0108E-03
542,14	1,1053E-03
542,49	3,4309E-04
542,85	1,2566E-03
543,20	3,7115E-04
543,56	7,3237E-04
543,91	6,5756E-04
544,27	1,0167E-03
544,62	1,6009E-03
544,98	1,6472E-03
545,33	4,3825E-04
545,69	1,4421E-03
546,04	7,5569E-04
546,40	1,6392E-03
546,75	5,0489E-04
547,10	1,0841E-03
547,46	1,2800E-03
547,81	1,3979E-03
548,17	1,3254E-03
548,52	3,3919E-04
548,88	9,3821E-04
549,23	-3,3850E-04
549,59	-2,4189E-05
549,94	7,0024E-04
550,29	6,0001E-04
550,65	6,4999E-04
551,00	5,8111E-04
551,36	9,6868E-04
551,71	7,9789E-04
552,06	1,0477E-03
552,42	1,2784E-03
552,77	1,2341E-03
553,13	1,5513E-03
553,48	1,0137E-03
553,83	1,4652E-04
554,19	1,4395E-03
554,54	5,3549E-04
554,90	3,6383E-04
555,25	1,3110E-03
555,60	5,7830E-04
555,96	1,6490E-03
556,31	5,1122E-04
556,66	3,9148E-04
557,02	9,6837E-05
557,37	9,7974E-04
557,72	-2,6922E-04
558,08	9,1770E-04
558,43	7,3498E-04
558,79	5,1565E-04
559,14	9,0505E-04
559,49	1,4451E-03
559,85	1,2186E-04
560,20	1,1105E-03
560,55	8,5977E-04
560,90	2,4470E-04
561,26	-4,4182E-04
561,61	4,1818E-04
561,96	8,1995E-04
562,32	1,0453E-03
562,67	5,4804E-04
563,02	5,7354E-04
563,38	-3,7058E-04
563,73	4,4883E-04
564,08	2,5090E-04
564,43	-4,7474E-04
564,79	1,0549E-03
565,14	2,7874E-04
565,49	6,3345E-04
565,84	2,0299E-04
566,20	3,3158E-04
566,55	-7,8156E-04
566,90	3,5965E-04
567,25	4,8049E-04
567,61	3,8032E-04
567,96	5,8745E-04
568,31	4,8552E-04
568,66	8,9112E-04
569,02	8,4518E-04
569,37	-2,5938E-04
569,72	1,0325E-04
570,07	4,3865E-04
570,42	5,6990E-04
570,78	-1,5690E-04
571,13	5,9791E-04
571,48	-5,7375E-04
571,83	2,6127E-05
572,18	8,3371E-04
572,54	-4,1686E-04
572,89	6,2826E-04
573,24	1,3522E-03
573,59	3,1368E-04
573,94	-7,9561E-04
574,30	2,6308E-04
574,65	7,1259E-04
575,00	-6,2940E-04
575,35	6,6108E-04
575,70	1,3228E-04
576,05	3,6881E-04
576,40	5,3250E-04
576,76	-3,9671E-04
577,11	6,5937E-04
577,46	1,5902E-04
577,81	-2,1244E-04
578,16	5,5915E-04
578,51	-6,9718E-04
578,86	5,3295E-05
579,21	3,1985E-04
579,57	-8,0871E-04
579,92	6,3985E-04
580,27	-1,6080E-04
580,62	-6,7501E-04
580,97	4,5677E-04
581,32	4,5794E-04
581,67	-2,6959E-04
582,02	-6,2264E-04
582,37	-2,7126E-05
582,72	1,0558E-03
583,08	3,5403E-04
583,43	1,6201E-03
583,78	4,8758E-04
584,13	1,0282E-03
584,48	8,7093E-04
584,83	-2,9983E-04
585,18	4,8999E-04
585,53	2,9899E-04
585,88	1,8907E-04
586,23	4,4100E-04
586,58	-4,0961E-04
586,93	2,9823E-04
587,28	-3,5635E-04
587,63	1,6279E-04
587,98	4,3790E-04
588,33	-8,1962E-05
588,68	-5,5373E-04
589,03	4,3680E-04
589,38	-3,0275E-04
589,73	4,4128E-04
590,08	6,3326E-04
590,43	-2,7648E-04
590,78	9,6072E-04
591,13	-2,4762E-04
591,48	3,0213E-04
591,83	5,2138E-04
592,18	6,8879E-04
592,53	4,4090E-04
592,88	-8,2387E-05
593,23	2,4973E-04
593,58	1,1066E-03
593,93	-2,7871E-04
594,28	2,7619E-05
594,63	3,3501E-04
594,98	-8,0053E-04
595,33	5,5453E-05
595,68	-1,1176E-04
596,02	-7,2532E-04
596,37	3,0579E-04
596,72	-3,0891E-04
597,07	-3,0695E-04
597,42	1,0143E-03
597,77	3,9141E-04
598,12	9,5456E-04
598,47	6,2407E-04
598,82	1,4035E-04
599,17	4,2453E-04
599,52	2,2737E-04
599,86	5,3613E-04
600,21	-7,9623E-04
600,56	-2,5851E-04
600,91	-4,5700E-04
601,26	4,8426E-04
601,61	1,1369E-04
601,96	4,2960E-04
602,30	-9,0048E-04
602,65	3,7363E-04
603,00	-8,7541E-05
603,35	4,6105E-04
603,70	1,1645E-04
604,05	-5,8313E-05
604,40	3,7823E-04
604,74	2,6171E-04
605,09	1,4725E-04
605,44	-5,8786E-05
605,79	7,0671E-04
606,14	1,1201E-03
606,48	-7,4070E-04
606,83	-2,9559E-05
607,18	-2,9788E-04
607,53	-4,7763E-04
607,88	-1,1935E-04
608,22	5,0733E-04
608,57	3,2852E-04
608,92	-9,0415E-05
609,27	6,3426E-04
609,62	-1,5102E-04
609,96	-3,0202E-04
610,31	0,0000E00
610,66	5,7845E-04
611,01	9,1402E-05
611,35	1,0098E-03
611,70	1,2309E-04
612,05	2,1534E-04
612,40	-1,5457E-04
612,74	1,8611E-04
613,09	-9,2873E-05
613,44	1,2402E-04
613,79	9,0613E-04
614,13	4,0810E-04
614,48	-6,2174E-05
614,83	9,4810E-05
615,17	-4,7521E-04
615,52	6,3240E-05
615,87	-4,4264E-04
616,22	3,7877E-04
616,56	3,1667E-04
616,91	3,1956E-05
617,26	5,4468E-04
617,60	6,0561E-04
617,95	5,1284E-04
618,30	8,0834E-04
618,64	1,0634E-03
618,99	1,5452E-03
619,34	-9,8033E-04
619,68	-1,7779E-03
620,03	-2,9199E-04
620,38	6,4848E-05
620,72	-7,7843E-04
621,07	5,5230E-04
621,42	-7,8873E-04
621,76	-1,9558E-04
622,11	6,5454E-04
622,45	3,6600E-04
622,80	-6,5939E-04
623,15	1,0036E-04
623,49	-7,6341E-04
623,84	-6,0115E-04
624,18	-3,6608E-04
624,53	-1,0035E-04
624,88	1,3047E-03
625,22	3,0302E-04
625,57	5,7126E-04
625,91	4,7623E-04
626,26	-6,8256E-05
626,61	3,7291E-04
626,95	1,3949E-03
627,30	-4,0925E-04
627,64	-2,3807E-04
627,99	-6,1828E-04
628,33	1,0567E-03
628,68	-5,1564E-04
629,03	1,3446E-03
629,37	3,4462E-04
629,72	-2,0831E-04
630,06	-1,3752E-04
630,41	7,3288E-04
630,75	1,0436E-03
631,10	1,7418E-04
631,44	3,4753E-05
631,79	5,2649E-04
632,13	-2,4440E-04
632,48	-2,1025E-04
632,82	7,0005E-05
633,17	7,0373E-05
633,51	2,8473E-04
633,86	4,9535E-04
634,20	5,3361E-04
634,55	-7,0907E-05
634,89	-4,2806E-04
635,24	-4,6549E-04
635,58	1,0757E-04
635,93	6,4538E-04
636,27	5,3599E-04
636,62	6,1357E-04
636,96	8,6280E-04
637,30	-3,9797E-04
637,65	3,9980E-04
637,99	-1,0797E-04
638,34	1,1990E-03
638,68	-1,4664E-04
639,03	-1,8165E-04
639,37	-1,3589E-03
639,71	3,6440E-05
640,06	7,3883E-05
640,40	-1,8342E-04
640,75	-6,6803E-04
641,09	3,3101E-04
641,44	-2,5783E-04
641,78	-4,4080E-04
642,12	5,1944E-04
642,47	4,1022E-04
642,81	-9,6059E-04
643,15	-5,6288E-04
643,50	4,8713E-04
643,84	6,7144E-04
644,19	2,2609E-04
644,53	2,2573E-04
644,87	7,5160E-05
645,22	2,2632E-04
645,56	1,3615E-03
645,90	-1,5574E-03
646,25	7,5753E-05
646,59	1,2565E-03
646,93	0,0000E00
647,28	-3,8070E-05
647,62	1,9120E-04
647,96	-4,6227E-04
648,31	3,8526E-04
648,65	3,8511E-05
648,99	-8,0393E-04
649,34	4,2651E-04
649,68	5,4311E-04
650,02	3,4989E-04
650,36	5,8238E-04
650,71	-5,0574E-04
651,05	-5,0904E-04
651,39	9,4230E-04
651,74	3,1195E-04
652,08	-6,3184E-04
652,42	7,4516E-04
652,76	3,9801E-04
653,11	-3,5830E-04
653,45	2,3940E-04
653,79	4,0081E-04
654,13	-6,7718E-04
654,48	-1,5184E-03
654,82	-1,0015E-03
655,16	6,4701E-04
655,50	-1,1774E-03
655,85	-2,4509E-04
656,19	-9,2548E-04
656,53	4,0824E-05
656,87	-1,2227E-04
657,21	-6,5486E-04
657,56	9,8399E-04
657,90	-2,0453E-04
658,24	4,5429E-04
658,58	-8,6939E-04
658,92	1,6406E-04
659,27	3,7017E-04
659,61	-4,1416E-05
659,95	5,3835E-04
660,29	1,6667E-04
660,63	-7,9732E-04
660,97	-7,0791E-04
661,32	8,4078E-04
661,66	-4,1950E-05
662,00	1,0921E-03
662,34	7,6343E-04
662,68	4,2609E-04
663,02	-1,2711E-04
663,37	6,3407E-04
663,71	1,9296E-03
664,05	3,8477E-04
664,39	-3,4337E-04
664,73	1,3716E-03
665,07	1,2686E-03
665,41	6,4775E-04
665,75	-1,2982E-04
666,09	-8,7093E-04
666,44	-6,9031E-04
666,78	0,0000E00
667,12	1,2803E-03
667,46	1,4023E-03
667,80	-7,9854E-04
668,14	-1,3758E-03
668,48	-1,2389E-03
668,82	-5,7952E-04
669,16	9,3545E-04
669,50	6,6960E-04
669,84	1,2111E-03
670,18	4,5296E-05
670,52	1,3614E-04
670,86	1,3686E-03
671,20	-4,1123E-04
671,54	-2,7683E-04
671,88	-1,1064E-03
672,22	-1,2254E-03
672,57	-1,8410E-04
672,91	1,4380E-03
673,25	4,2252E-04
673,59	5,9720E-04
673,93	-1,8642E-04
674,27	-1,1748E-03
674,61	-4,2693E-04
674,95	3,7687E-04
675,28	-1,1363E-03
675,62	1,4248E-04
675,96	4,2704E-04
676,30	-2,8378E-04
676,64	1,4412E-04
676,98	5,2457E-04
677,32	-3,3513E-04
677,66	-1,7396E-03
678,00	1,9174E-04
678,34	1,9731E-03
678,68	7,2973E-04
679,02	-1,5092E-03
679,36	-7,8330E-04
679,70	1,3779E-03
680,04	1,1267E-03
680,38	-1,2365E-03
680,72	-1,4807E-03
681,06	-6,4204E-04
681,39	1,2440E-03
681,73	0,0000E00
682,07	-6,9861E-04
682,41	2,4961E-04
682,75	1,5057E-04
683,09	-5,5214E-04
683,43	3,0423E-04
683,77	7,1376E-04
684,11	2,0203E-04
684,44	0,0000E00
684,78	2,8623E-03
685,12	8,7532E-04
685,46	4,6280E-04
685,80	-2,0650E-04
686,14	5,1479E-05
686,48	6,2401E-04
686,81	-2,3012E-03
687,15	1,5651E-04
687,49	1,5733E-03
687,83	2,5886E-04
688,17	6,3605E-04
688,51	1,9093E-03
688,84	7,4536E-04
689,18	2,2840E-03
689,52	-3,7513E-04
689,86	1,1196E-03
690,20	-5,8711E-04
690,53	0,0000E00
690,87	-8,5677E-04
691,21	1,1908E-03
691,55	1,4091E-03
691,88	-1,2566E-03
692,22	-1,2621E-03
692,56	3,8185E-04
692,90	9,2956E-04
693,23	9,3363E-04
693,57	2,7533E-04
693,91	1,1036E-04
694,25	3,8670E-04
694,58	6,6309E-04
694,92	6,0906E-04
695,26	1,1049E-04
695,60	-1,2335E-03
695,93	1,1149E-03
696,27	-6,1417E-04
696,61	-1,0710E-03
696,94	1,5821E-03
697,28	-5,1025E-04
697,62	1,1464E-04
697,96	3,4223E-04
698,29	-1,7034E-03
698,63	8,4945E-04
698,97	2,4139E-03
699,30	-1,1458E-04
699,64	-1,3137E-03
699,98	5,7660E-04
700,31	2,5853E-03
700,65	-1,4357E-03
700,99	0,0000E00
701,32	8,7259E-04
701,66	-5,8169E-05
702,00	2,3380E-04
702,33	-1,0469E-03
702,67	-8,7062E-04
703,00	2,1659E-03
703,34	1,5771E-03
703,68	1,5315E-03
704,01	5,9601E-04
704,35	-1,3733E-03
704,69	-1,1881E-04
705,02	-9,5364E-04
705,36	2,5465E-03
705,69	-5,3789E-04
706,03	1,2036E-03
706,36	2,3249E-03
706,70	-9,6187E-04
707,04	5,4258E-04
707,37	-1,7973E-04
707,71	1,0785E-03
708,04	1,0906E-03
708,38	8,4199E-04
708,71	0,0000E00
709,05	7,3425E-04
709,39	-1,0996E-03
709,72	-6,7707E-04
710,06	-9,7951E-04
710,39	3,0897E-04
710,73	-3,5568E-03
711,06	-8,0520E-04
711,40	-1,8626E-04
711,73	4,3261E-04
712,07	1,4835E-03
712,40	-1,6105E-03
712,74	-5,5707E-04
713,07	6,2374E-05
713,41	2,2523E-03
713,74	3,7558E-04
714,08	1,8901E-03
714,41	-2,1036E-03
714,75	-1,1405E-03
715,08	-1,7102E-03
715,42	-3,8116E-04
715,75	1,2755E-04
716,08	-1,2753E-03
716,42	1,0261E-03
716,75	-1,0232E-03
717,09	-5,7819E-04
717,42	1,9368E-04
717,76	1,0266E-03
718,09	-1,5423E-03
718,43	-1,6917E-03
718,76	-1,2905E-04
719,09	5,8112E-04
719,43	-1,9573E-04
719,76	7,8789E-04
720,10	-3,9462E-04
720,43	1,3086E-04
720,76	-1,3125E-03
721,10	-7,1554E-04
721,43	1,5735E-03
721,76	-1,5116E-03
722,10	-1,2556E-03
722,43	2,6646E-03
722,77	6,6668E-04
723,10	8,6888E-04
723,43	-5,3644E-04
723,77	2,0231E-04
724,10	1,8854E-03
724,43	1,2056E-03
724,77	-7,3976E-04
725,10	-1,1577E-03
725,43	4,7070E-04
725,77	-6,7822E-05
726,10	1,0187E-03
726,43	1,1547E-03
726,77	1,0357E-03
727,10	-9,0362E-04
727,43	1,5859E-03
727,77	1,3828E-04
728,10	1,3895E-04
728,43	-1,7897E-03
728,76	-5,5781E-04
729,10	-7,0127E-05
729,43	-2,0713E-04
729,76	-2,4492E-03
730,09	-2,8493E-04
730,43	-4,9272E-04
730,76	-5,6294E-04
731,09	-1,8358E-03
731,42	-1,9828E-03
731,76	-2,5567E-03
732,09	9,3495E-04
732,42	2,1431E-03
732,75	3,5793E-04
733,09	-2,2348E-03
733,42	-2,8398E-03
733,75	7,2030E-05
734,08	1,5990E-03
734,41	3,6595E-04
734,75	-2,6107E-03
735,08	1,0930E-03
735,41	1,6246E-03
735,74	1,9996E-03
736,07	2,9842E-04
736,41	-1,0519E-03
736,74	-8,2168E-04
737,07	0,0000E00
737,40	-1,8739E-03
737,73	1,4934E-04
738,06	2,1998E-03
738,40	-1,4986E-03
738,73	-1,4362E-03
739,06	2,9098E-03
739,39	1,5254E-03
739,72	-7,6615E-05
740,05	1,3715E-03
740,38	3,1060E-04
740,72	-7,7348E-04
741,05	-8,5613E-04
741,38	-8,5891E-04
741,71	1,0985E-03
742,04	1,5703E-03
742,37	7,9452E-05
742,70	8,7109E-04
743,03	-1,1871E-03
743,36	4,7760E-04
743,69	4,8106E-04
744,02	-1,2050E-03
744,36	2,4121E-04
744,69	-4,8227E-04
745,02	8,8670E-04
745,35	6,4731E-04
745,68	-5,7139E-04
746,01	2,0733E-03
746,34	1,8792E-03
746,67	-1,9968E-03
747,00	-4,1307E-04
747,33	-2,9302E-03
747,66	6,6963E-04
747,99	-2,2737E-03
748,32	-2,0935E-03
748,65	3,3731E-04
748,98	9,2598E-04
749,31	1,0174E-03
749,64	-1,2738E-03
749,97	8,5471E-05
750,30	3,4180E-04
750,63	-1,8185E-03
750,96	-1,1291E-03
751,29	2,8935E-03
751,62	6,9361E-04
751,95	3,1616E-03
752,28	1,1430E-03
752,61	1,0569E-03
752,94	1,6884E-03
753,27	-3,2989E-03
753,60	-1,3351E-03
753,92	-1,4280E-03
754,25	-2,1628E-03
754,58	1,0000E-03
754,91	9,0609E-04
755,24	-9,9502E-04
755,57	-3,1936E-03
755,90	3,5701E-03
756,23	-2,1096E-03
756,56	-1,6501E-03
756,89	-1,4054E-03
757,22	1,6592E-03
757,54	3,1432E-03
757,87	1,1239E-03
758,20	-1,0273E-03
758,53	1,7877E-03
758,86	1,9670E-03
759,19	2,8621E-04
759,52	9,5146E-05
759,84	3,0711E-03
760,17	-2,8820E-04
760,50	-4,7962E-04
760,83	6,7470E-04
761,16	2,6810E-03
761,49	-3,5325E-03
761,81	-2,6336E-03
762,14	-1,7829E-03
762,47	-1,3845E-03
762,80	1,3813E-03
763,13	9,9548E-05
763,45	-4,7077E-03
763,78	9,9388E-04
764,11	2,3018E-03
764,44	-1,4079E-03
764,77	3,5590E-03
765,09	2,0124E-04
765,42	6,1071E-04
765,75	-3,1715E-03
766,08	-1,9516E-03
766,40	-1,1303E-03
766,73	-7,2629E-04
767,06	3,0740E-04
767,39	6,2408E-04
767,71	-4,6857E-03
768,04	4,7878E-03
768,37	4,2189E-04
768,70	-2,1063E-03
769,02	-2,6581E-03
769,35	2,1382E-03
769,68	-6,4003E-04
770,00	-3,0919E-03
770,33	2,4608E-03
770,66	2,2642E-03
770,99	0,0000E00
771,31	-1,8432E-03
771,64	1,6433E-03
771,97	1,3112E-03
772,29	5,7711E-03
772,62	-6,6163E-04
772,95	-1,0004E-03
773,27	-3,7142E-03
773,60	5,5712E-04
773,93	-4,6730E-03
774,25	-2,2178E-04
774,58	-3,3940E-04
774,90	2,2848E-04
775,23	5,7277E-04
775,56	0,0000E00
775,88	2,2993E-03
776,21	2,4073E-03
776,54	2,2995E-04
776,86	-1,8429E-03
777,19	1,5104E-03
777,51	4,6731E-03
777,84	9,2928E-04
778,16	-2,4662E-03
778,49	-1,7718E-03
778,82	-2,1127E-03
779,14	-8,2216E-04
779,47	-2,7318E-03
779,79	-1,4326E-03
780,12	2,1667E-03
780,44	-4,4364E-03
780,77	-1,5979E-03
781,10	1,2106E-04
781,42	-8,4718E-04
781,75	4,0321E-03
782,07	3,7159E-04
782,40	-1,6041E-03
782,72	2,2324E-03
783,05	2,8664E-03
783,37	-1,3857E-03
783,70	7,6136E-04
784,02	-1,1257E-03
784,35	-1,5030E-03
784,67	1,2669E-03
785,00	1,6574E-03
785,32	2,5707E-04
785,65	4,9893E-03
785,97	-3,8747E-04
786,30	1,2970E-03
786,62	-1,4113E-03
786,94	4,4138E-03
787,27	-5,2143E-04
787,59	2,6517E-04
787,92	7,0426E-03
788,24	-3,3272E-03
788,57	4,7602E-03
788,89	-9,2118E-04
789,22	2,6319E-03
789,54	-2,5986E-04
789,86	-2,7521E-03
790,19	-5,7297E-03
790,51	1,5676E-03
790,84	-1,8539E-03
791,16	3,3240E-03
791,48	1,5939E-03
791,81	-1,9906E-03
792,13	-5,1674E-03
792,45	-2,4149E-03
792,78	-7,9321E-04
793,10	-3,5583E-03
793,43	7,8998E-04
793,75	-2,6669E-03
794,07	7,3512E-03
794,40	-9,2767E-04
794,72	-2,2622E-03
795,04	-3,9760E-03
795,37	2,2329E-03
795,69	1,1933E-03
796,01	-3,8842E-04
796,34	2,2316E-03
796,66	4,9093E-03
796,98	6,5563E-04
797,30	-6,2435E-03
797,63	-2,3600E-03
797,95	5,1912E-04
798,27	-3,1447E-03
798,60	7,7698E-04
798,92	4,2250E-03
799,24	-5,5870E-03
799,56	-3,7744E-03
799,89	0,0000E00
800,21	-1,0447E-03
800,53	1,1674E-03
800,85	9,1527E-04
801,18	5,3421E-03
801,50	1,5786E-03
801,82	1,7004E-03
802,14	-1,1903E-03
802,47	-2,2516E-03
802,79	1,3108E-04
803,11	2,5099E-03
803,43	-9,1437E-04
803,75	-3,3010E-03
804,08	-3,4654E-03
804,40	-1,1902E-03
804,72	-3,5284E-03
805,04	2,6635E-04
805,36	-1,3291E-04
805,69	2,9188E-03
806,01	3,1652E-03
806,33	2,6774E-04
806,65	-3,7524E-03
806,97	4,1685E-03
807,29	1,8833E-03
807,62	2,2516E-03
807,94	-9,4060E-04
808,26	1,4791E-03
808,58	-1,9044E-03
808,90	5,4727E-04
809,22	-2,0712E-03
809,54	-1,3592E-04
809,86	-5,5213E-03
810,18	-1,7948E-03
810,51	2,7251E-04
810,83	-2,9136E-03
811,15	-7,0567E-03
811,47	-2,7986E-03
811,79	-3,8555E-03
812,11	1,7978E-03
812,43	0,0000E00
812,75	0,0000E00
813,07	-3,5100E-03
813,39	4,1961E-04
813,71	4,2699E-04
814,03	8,4092E-04
814,35	5,2405E-03
814,67	-1,1255E-03
814,99	2,8564E-04
815,31	-1,4317E-03
815,64	2,8578E-03
815,96	-5,6885E-03
816,28	-1,5724E-03
816,60	-1,3032E-03
816,92	-2,8327E-03
817,24	7,2396E-04
817,56	5,8069E-04
817,88	-1,1795E-03
818,19	2,1887E-03
818,51	2,9447E-03
818,83	3,2376E-03
819,15	2,9231E-04
819,47	-2,0772E-03
819,79	-1,1927E-03
820,11	-1,7814E-03
820,43	-6,0101E-04
820,75	9,1050E-04
821,07	-1,5190E-03
821,39	-5,9127E-03
821,71	1,5095E-03
822,03	7,7060E-04
822,35	-2,9180E-03
822,67	-1,2236E-03
822,99	1,5533E-03
823,31	3,3624E-03
823,62	-3,8538E-03
823,94	-4,7020E-04
824,26	-3,1389E-04
824,58	-1,5556E-04
824,90	-2,0373E-03
825,22	4,6857E-03
825,54	2,8725E-03
825,86	-7,0467E-03
826,17	-3,0502E-03
826,49	1,1170E-03
826,81	-3,2249E-03
827,13	4,8128E-04
827,45	-3,2254E-04
827,77	-3,9254E-03
828,08	-1,1383E-03
828,40	-8,9988E-03
828,72	-1,6649E-04
829,04	2,4688E-03
829,36	4,7491E-03
829,67	5,8050E-03
829,99	-2,4742E-03
830,31	1,6737E-03
830,63	-3,2051E-03
830,95	-1,1758E-03
831,26	3,3604E-04
831,58	1,5277E-03
831,90	2,9187E-03
832,22	3,4450E-03
832,53	-1,0488E-03
832,85	1,7491E-04
833,17	1,2014E-03
833,49	-5,2234E-04
833,80	-5,2940E-03
834,12	1,0658E-03
834,44	7,1360E-04
834,76	2,1110E-03
835,07	4,8476E-03
835,39	2,4981E-03
835,71	-1,0800E-03
836,02	1,2535E-03
836,34	3,9482E-03
836,66	1,0781E-03
836,97	1,7918E-04
837,29	-1,8154E-04
837,61	-4,3953E-03
837,93	1,2670E-03
838,24	1,8344E-03
838,56	-2,1996E-03
838,88	-2,5928E-03
839,19	-4,5857E-03
839,51	-2,5892E-03
839,82	3,7517E-04
840,14	-1,4864E-03
840,46	-3,0047E-03
840,77	-3,5901E-03
841,09	9,5111E-04
841,41	1,8832E-03
841,72	-7,6600E-04
842,04	-1,9185E-04
842,35	5,7634E-04
842,67	0,0000E00
842,99	-6,0579E-03
843,30	-1,5411E-03
843,62	1,9606E-04
843,93	9,9142E-04
844,25	-3,8662E-04
844,56	-8,0355E-04
844,88	-8,0063E-04
845,20	5,9434E-04
845,51	-2,9880E-03
845,83	3,9819E-04
846,14	4,4462E-03
846,46	-3,0011E-03
846,77	-1,8154E-03
847,09	1,2336E-03
847,40	-6,1122E-04
847,72	-4,7106E-03
848,03	4,9522E-03
848,35	3,5203E-03
848,66	6,0668E-03
848,98	-3,9783E-03
849,29	-3,1357E-03
849,61	-6,3868E-03
849,92	-4,2186E-04
850,24	-1,0702E-03
850,55	-7,7637E-03
850,87	5,7548E-03
851,18	1,2811E-03
851,50	4,0844E-03
851,81	1,7355E-03
852,12	-3,8986E-03
852,44	-5,2475E-03
852,75	-1,5340E-03
853,07	1,7310E-03
853,38	-2,2150E-04
853,70	4,6674E-03
854,01	-2,0244E-03
854,32	-2,0158E-03
854,64	-1,5881E-03
854,95	9,0168E-04
855,27	-5,4237E-03
855,58	5,8289E-03
855,89	-3,9314E-03
856,21	3,8770E-03
856,52	-9,1236E-04
856,83	1,8562E-03
857,15	-6,4337E-03
857,46	5,1385E-03
857,77	-1,3897E-02
858,09	-2,5621E-03
858,40	2,5807E-03
858,71	-3,5703E-03
859,03	2,5851E-03
859,34	-5,5219E-03
859,65	-5,4833E-03
859,97	4,8080E-04
860,28	2,1969E-03
860,59	0,0000E00
860,91	-9,8420E-04
861,22	2,2168E-03
861,53	2,4825E-04
861,84	0,0000E00
862,16	-3,5231E-03
862,47	-3,2628E-03
862,78	-3,5435E-03
863,10	6,7899E-03
863,41	-5,0479E-03
863,72	-2,7920E-03
864,03	-2,0615E-03
864,35	3,5584E-03
864,66	-7,7010E-04
864,97	-3,8335E-03
865,28	-7,5245E-03
865,59	5,5799E-03
865,91	-5,2236E-04
866,22	-3,1680E-03
866,53	-7,6047E-03
866,84	-2,6440E-03
867,15	-3,6864E-03
867,47	1,6069E-03
867,78	-1,1008E-02
868,09	-4,8812E-03
868,40	1,0364E-02
868,71	8,1374E-03
869,02	1,3929E-02
869,34	-6,6903E-03
869,65	-1,0979E-03
869,96	1,3991E-03
870,27	2,2490E-03
870,58	-1,1309E-03
870,89	1,6950E-02
871,20	-8,3918E-04
871,52	-8,5316E-04
871,83	5,6705E-04
872,14	-2,0120E-03
872,45	3,1577E-03
872,76	-2,8944E-04
873,07	5,2251E-03
873,38	1,4591E-03
873,69	6,4665E-03
874,00	7,0792E-03
874,31	2,6857E-03
874,62	7,6770E-03
874,94	-5,9282E-04
875,25	-1,1894E-02
875,56	-2,3777E-03
875,87	6,0626E-04
876,18	1,5167E-03
876,49	7,2900E-03
876,80	1,2341E-03
877,11	6,4342E-03
877,42	-7,9622E-03
877,73	2,4766E-03
878,04	2,1578E-03
878,35	6,2188E-04
878,66	-4,0834E-03
878,97	-6,8360E-03
879,28	4,3991E-03
879,59	-2,5127E-03
879,90	6,2822E-03
880,21	6,0560E-03
880,52	4,1553E-03
880,83	-1,9083E-03
881,14	1,1453E-02
881,45	-1,2812E-02
881,76	-1,9120E-03
882,07	-7,6365E-03
882,37	-1,0143E-02
882,68	-5,6579E-03
882,99	4,1450E-03
883,30	-2,8558E-03
883,61	5,1063E-03
883,92	1,2772E-03
884,23	-5,3774E-03
884,54	9,0842E-03
884,85	-9,4728E-03
885,16	1,2865E-03
885,47	-7,9584E-03
885,77	-1,4906E-02
886,08	-8,7624E-03
886,39	-8,9158E-03
886,70	5,4192E-03
887,01	7,9501E-03
887,32	6,3508E-04
887,63	8,9906E-03
887,93	1,0102E-02
888,24	-6,3347E-03
888,55	2,2533E-03
888,86	-9,6288E-04
889,17	-6,3625E-03
889,47	1,6225E-03
889,78	1,2972E-02
890,09	2,8929E-03
890,40	-1,1559E-02
890,71	-1,5746E-02
891,01	2,2973E-03
891,32	-1,2375E-02
891,63	1,2877E-03
891,94	-1,3036E-03
892,25	-4,7293E-03
892,55	-3,4973E-03
892,86	1,9210E-03
893,17	-4,2229E-03
893,48	3,5540E-03
893,78	1,2933E-03
894,09	-2,9207E-03
894,40	8,0878E-03
894,70	1,2952E-03
895,01	-1,9248E-03
895,32	-6,3726E-04
895,63	2,9281E-03
895,93	-6,2270E-03
896,24	4,8623E-03
896,55	5,5224E-03
896,85	-4,8221E-03
897,16	-9,4332E-03
897,47	4,2303E-03
897,77	-1,6126E-03
898,08	2,9533E-03
898,39	6,2379E-03
898,69	-6,5671E-04
899,00	1,9809E-03
899,31	-1,4853E-02
899,61	1,3118E-03
899,92	-3,2754E-03
900,23	7,6671E-03
900,53	7,4148E-03
900,84	-6,6687E-04
901,14	-5,0477E-03
901,45	3,3219E-04
901,76	-1,4710E-02
902,06	4,0038E-03
902,37	-2,3444E-03
902,67	3,3700E-04
902,98	-9,3991E-03
903,29	-9,1492E-03
903,59	1,0163E-03
903,90	-8,6429E-03
904,20	-3,7665E-03
904,51	6,8556E-04
904,81	-1,2441E-02
905,12	-3,0683E-03
905,42	0,0000E00
905,73	3,1179E-03
906,03	-2,8298E-03
906,34	6,6620E-03
906,64	1,1719E-02
906,95	-2,8045E-03
907,25	3,2286E-03
907,56	1,0824E-03
907,86	-1,7971E-03
908,17	0,0000E00
908,47	1,4563E-03
908,78	-5,8544E-03
909,08	-5,4993E-03
909,39	-3,6763E-03
909,69	-3,7058E-04
910,00	8,9230E-03
910,30	8,9639E-03
910,61	-1,5806E-02
910,91	-3,7056E-03
911,21	8,7164E-03
911,52	-8,8890E-03
911,82	-2,7225E-03
912,13	-3,8752E-04
912,43	-1,0828E-02
912,74	7,3503E-03
913,04	-5,4473E-03
913,34	-8,2105E-03
913,65	-5,1282E-03
913,95	-5,1192E-03
914,25	-1,1274E-02
914,56	3,2403E-03
914,86	-9,3913E-03
915,17	5,3102E-03
915,47	-1,2194E-02
915,77	1,0851E-02
916,08	6,1800E-03
916,38	1,2410E-03
916,68	1,4134E-02
916,99	1,1995E-02
917,29	-1,7139E-02
917,59	-1,4442E-02
917,90	-5,0358E-03
918,20	5,0255E-03
918,50	-1,6934E-03
918,80	1,2322E-02
919,11	-3,0026E-03
919,41	-4,8209E-03
919,71	-7,9067E-03
920,02	6,5292E-03
920,32	-1,7371E-03
920,62	-1,7962E-03
920,92	6,6147E-03
921,23	-9,7528E-03
921,53	-6,3584E-03
921,83	1,2609E-02
922,13	-3,1586E-03
922,44	6,4733E-03
922,74	2,3048E-03
923,04	6,4227E-03
923,34	4,1765E-03
923,64	4,5661E-04
923,95	-7,0739E-03
924,25	-8,4753E-03
924,55	6,0422E-03
924,85	5,7385E-03
925,15	-1,9025E-03
925,46	7,2375E-03
925,76	-8,2969E-03
926,06	1,0204E-02
926,36	-9,7842E-03
926,66	-9,8915E-03
926,96	1,2950E-02
927,26	2,0226E-03
927,57	9,9652E-04
927,87	6,5692E-03
928,17	-5,6748E-03
928,47	1,3154E-02
928,77	5,1111E-04
929,07	9,8736E-03
929,37	1,3076E-02
929,67	-2,0566E-02
929,98	4,2271E-03
930,28	1,6076E-03
930,58	-8,4981E-03
930,88	-5,2859E-03
931,18	1,0261E-02
931,48	-1,1486E-02
931,78	7,2407E-03
932,08	7,1963E-03
932,38	7,1680E-03
932,68	-6,1859E-03
932,98	9,6633E-03
933,28	1,2510E-02
933,58	2,1325E-02
933,88	-7,5196E-03
934,18	5,6847E-04
934,48	-1,2810E-02
934,78	-5,2774E-03
935,08	-2,3159E-03
935,38	-9,4231E-03
935,68	-1,2146E-03
935,98	1,8487E-03
936,28	-1,2265E-03
936,58	3,6765E-03
936,88	-2,5028E-02
937,18	2,0047E-02
937,48	-6,8561E-03
937,78	1,1349E-02
938,08	-2,5629E-03
938,38	3,1239E-02
938,68	1,0231E-02
938,98	-1,2899E-03
939,28	-6,3803E-03
939,57	7,6794E-03
939,87	1,3957E-02
940,17	2,2100E-02
940,47	0,0000E00
940,77	-1,4363E-02
941,07	-1,0739E-02
941,37	-9,9383E-03
941,67	1,4547E-02
941,97	9,0298E-03
942,26	-8,8345E-03
942,56	-1,7806E-02
942,86	-1,7434E-02
943,16	-2,0452E-02
943,46	-2,4669E-02
943,76	1,6920E-02
944,06	2,1086E-03
944,35	1,5792E-02
944,65	-1,5557E-02
944,95	2,6885E-02
945,25	-1,3948E-02
945,55	-3,7077E-03
945,84	-1,2504E-02
946,14	3,0765E-02
946,44	2,7970E-02
946,74	6,8034E-03
947,03	-6,2380E-03
947,33	7,6692E-03
947,63	7,7289E-03
947,93	1,0077E-02
948,23	-1,4212E-02
948,52	-7,8103E-04
948,82	-8,7152E-03
949,12	5,7401E-03
949,41	-1,9200E-02
949,71	3,0950E-02
950,01	-1,6364E-03
950,31	-2,4992E-03
950,60	1,7344E-02
950,90	4,1551E-02
951,20	1,4163E-02
951,49	1,1013E-02
951,79	1,0138E-02
952,09	-1,7358E-02
952,38	-6,9991E-03
952,68	2,1834E-02
952,98	0,0000E00
953,27	8,8252E-04
953,57	3,1576E-02
953,87	6,2671E-03
954,16	-1,3480E-02
954,46	4,4556E-03
954,76	1,7292E-02
955,05	1,6098E-02
955,35	1,4824E-02
955,64	5,5999E-03
955,94	-4,7760E-03
956,24	-1,9996E-02
956,53	2,0926E-02
956,83	6,3514E-02
957,12	2,6812E-02
957,42	8,7454E-03
957,72	-7,9479E-03
958,01	2,7897E-02
958,31	1,4887E-02
958,60	0,0000E00
958,90	-1,6536E-02
959,19	1,1616E-02
959,49	-7,1808E-03
959,78	2,4003E-02
960,08	1,8596E-02
960,37	-1,0387E-02
960,67	-3,1262E-03
960,96	-1,8341E-02
961,26	-3,3965E-02
961,55	-2,0168E-02
961,85	-1,2432E-02
962,14	-2,2214E-03
962,44	-3,9246E-02
962,73	-8,9038E-03
963,03	9,9328E-03
963,32	-1,6650E-02
963,62	2,3038E-02
963,91	-4,5675E-03
964,21	-4,1250E-02
964,50	-2,1115E-02
964,80	2,9409E-02
965,09	2,4485E-02
965,38	2,0205E-02
965,68	-2,9521E-02
965,97	1,7281E-02
966,27	-9,7088E-03
966,56	-4,8917E-03
966,85	-2,6112E-02
967,15	-7,3527E-03
967,44	-6,0554E-03
967,74	-1,3919E-02
968,03	-6,2291E-03
968,32	9,0063E-03
968,62	-3,2898E-02
968,91	-1,3137E-02
969,20	-1,5357E-02
969,50	3,5239E-02
969,79	-2,9039E-02
970,08	-9,3828E-03
970,38	-4,5677E-02
970,67	-1,4956E-02
970,96	-2,3280E-02
971,26	2,8823E-02
971,55	-2,0459E-02
971,84	5,5772E-02
972,13	2,4897E-02
972,43	-1,2718E-02
972,72	-2,1373E-02
973,01	-5,8645E-03
973,31	1,3056E-02
973,60	6,4704E-02
973,89	2,3281E-02
974,18	-3,2367E-02
974,48	-1,7869E-02
974,77	-2,5601E-02
975,06	4,3077E-02
975,35	-6,2459E-03
975,64	4,0438E-02
975,94	-1,8901E-02
976,23	1,0817E-02
976,52	2,6515E-02
976,81	-1,6431E-03
977,10	-3,7131E-02
977,40	0,0000E00
977,69	3,2781E-02
977,98	-3,5345E-02
978,27	-3,8151E-02
978,56	6,2446E-02
978,86	-2,6015E-02
979,15	1,1912E-02
979,44	2,0945E-02
979,73	5,2583E-03
980,02	-3,7505E-02
980,31	-3,4295E-02
980,60	-3,6123E-03
980,89	4,2588E-02
981,19	7,4946E-03
981,48	-2,9577E-02
981,77	-1,6977E-02
982,06	6,1845E-02
982,35	-1,1088E-02
982,64	-5,1336E-02
982,93	-4,9252E-02
983,22	7,6871E-02
983,51	-6,3493E-02
983,80	1,4009E-02
984,09	-3,6891E-02
984,38	-5,9184E-02
984,67	-2,8584E-02
984,96	2,2407E-02
985,25	-1,6997E-02
985,55	3,9566E-02
985,84	0,0000E00
986,13	-4,2994E-03
986,42	1,5246E-02
986,71	-8,5986E-03
987,00	-5,5495E-02
987,29	-3,4782E-02
987,58	-1,1213E-02
987,86	-5,1811E-02
988,15	2,7658E-02
988,44	-4,6712E-03
988,73	-1,6185E-02
989,02	5,9875E-02
989,31	-6,9824E-02
989,60	2,7307E-02
989,89	-9,1857E-03
990,18	-9,9577E-03
990,47	-2,6223E-02
990,76	-8,8778E-02
991,05	-3,7895E-02
991,34	1,5101E-02
991,63	-7,4534E-02
991,92	4,9649E-03
992,20	-2,5305E-03
992,49	-2,1317E-02
992,78	1,2815E-02
993,07	-1,8948E-02
993,36	4,6582E-02
993,65	1,3178E-01
993,94	-6,2755E-02
994,22	1,3704E-02
994,51	-7,7815E-02
994,80	-4,4774E-02
995,09	1,1445E-02
995,38	-5,6436E-03
995,67	2,5513E-02
995,95	-1,1693E-02
996,24	-4,5048E-02
996,53	6,0806E-02
996,82	1,2874E-02
997,11	-5,7087E-02
997,39	2,5977E-02
997,68	-1,9275E-02
997,97	5,2778E-02
998,26	-1,9245E-02
998,54	2,1969E-02
998,83	6,4912E-02
999,12	1,5864E-02
999,41	1,8830E-02
999,69	-1,1912E-01
999,98	-1,3111E-02
1000,27	-3,3254E-03
1000,56	4,6496E-02
1000,84	-3,6485E-02
1001,13	-1,5644E-01
1001,42	3,5202E-03
1001,70	-1,4742E-02
1001,99	-6,5168E-02
1002,28	-3,2373E-02
1002,56	8,8512E-02
1002,85	1,0824E-01
1003,14	7,4689E-03
1003,42	3,2413E-02
1003,71	-1,1123E-02
1004,00	1,4105E-01
1004,28	-9,5923E-02
1004,57	-2,7236E-02
1004,86	4,2455E-02
1005,14	5,9326E-02
1005,43	-6,1243E-02
1005,72	-3,9990E-02
1006,00	-1,3337E-01
1006,29	-1,6252E-01
1006,57	-9,0679E-02
1006,86	2,1191E-02
1007,15	3,1812E-02
1007,43	-7,2937E-02
1007,72	9,4825E-02
1008,00	-2,2675E-02
1008,29	-2,0167E-01
1008,57	2,8601E-02
1008,86	-9,0262E-02
1009,14	5,9156E-02
1009,43	-4,5076E-02
1009,71	7,2612E-02
1010,00	-1,4667E-01
1010,29	7,5228E-02
1010,57	8,0809E-02
1010,86	1,0220E-02
1011,14	-6,8985E-02
1011,43	-1,4150E-01
1011,71	1,4831E-01
1011,99	-7,4918E-02
1012,28	-2,8716E-01
1012,56	1,0109E-01
1012,85	5,4585E-02
1013,13	3,8116E-02
1013,42	8,1235E-02
1013,70	4,8363E-02
1013,99	-4,8070E-02
1014,27	1,2663E-01
1014,56	-1,8871E-01
1014,84	-5,0413E-03
1015,12	-5,9143E-03
1015,41	1,1931E-01
1015,69	1,1237E-01
1015,98	6,1106E-03
1016,26	-2,0906E-01
1016,54	-1,2392E-01
1016,83	0,0000E00
1017,11	5,4216E-02
1017,39	1,5312E-01
1017,68	-2,2599E-02
1017,96	-1,4332E-01
1018,25	1,4777E-01
1018,53	-4,8816E-02
1018,81	-9,2770E-02
1019,10	-3,3570E-02
1019,38	-8,4447E-02
1019,66	-2,9018E-01
1019,94	3,8860E-02
1020,23	-1,9847E-01
1020,51	-6,8551E-03
1020,79	1,4439E-01
1021,08	8,8750E-02
1021,36	1,6344E-01
1021,64	-6,8542E-02
1021,93	-1,7967E-01
1022,21	-4,8674E-01
1022,49	-4,8674E-01
>>>>>End Processed Spectral Data<<<<<
