SpectraSuite Data File
++++++++++++++++++++++++++++++++++++
Date: Thu Apr 21 10:49:03 EEST 2016
User: mkilpela
Dark Spectrum Present: Yes
Reference Spectrum Present: No
Number of Sampled Component Spectra: 1
Spectrometers: JAZA2845
Integration Time (usec): 183226 (JAZA2845)
Spectra Averaged: 1 (JAZA2845)
Boxcar Smoothing: 0 (JAZA2845)
Correct for Electrical Dark: No (JAZA2845)
Strobe/Lamp Enabled: No (JAZA2845)
Correct for Detector Non-linearity: No (JAZA2845)
Correct for Stray Light: No (JAZA2845)
Number of Pixels in Processed Spectrum: 2048
>>>>>Begin Processed Spectral Data<<<<<
340,21	0,0000E00
340,58	0,0000E00
340,96	0,0000E00
341,33	0,0000E00
341,70	0,0000E00
342,07	-0,0000E00
342,45	-0,0000E00
342,82	-0,0000E00
343,19	0,0000E00
343,57	0,0000E00
343,94	0,0000E00
344,31	-0,0000E00
344,68	0,0000E00
345,06	0,0000E00
345,43	0,0000E00
345,80	0,0000E00
346,18	-0,0000E00
346,55	0,0000E00
346,92	0,0000E00
347,29	-0,0000E00
347,67	0,0000E00
348,04	0,0000E00
348,41	0,0000E00
348,78	-0,0000E00
349,16	-0,0000E00
349,53	0,0000E00
349,90	0,0000E00
350,27	1,4179E-02
350,64	-1,6256E-03
351,02	-2,1402E-02
351,39	1,9932E-03
351,76	-7,0180E-03
352,13	1,0506E-02
352,51	0,0000E00
352,88	4,1682E-03
353,25	5,7300E-03
353,62	2,9064E-03
353,99	3,0196E-03
354,37	-5,3803E-03
354,74	-2,4424E-03
355,11	-7,1676E-03
355,48	6,1134E-03
355,85	1,2757E-02
356,23	2,9060E-04
356,60	-2,3010E-03
356,97	4,6091E-03
357,34	-1,0632E-01
357,71	-3,1777E-03
358,08	-1,3049E-03
358,46	1,2176E-02
358,83	4,4532E-03
359,20	-3,4716E-03
359,57	2,2846E-04
359,94	0,0000E00
360,31	-5,3107E-03
360,69	-7,7677E-04
361,06	-1,4826E-03
361,43	8,0722E-04
361,80	-9,1086E-03
362,17	5,3700E-03
362,54	-1,4951E-03
362,91	-2,2881E-03
363,29	2,3702E-04
363,66	-1,7468E-02
364,03	6,0403E-03
364,40	1,8764E-02
364,77	-6,9584E-03
365,14	-2,6245E-03
365,51	2,1123E-03
365,88	-4,6723E-03
366,26	-9,7466E-04
366,63	-3,6144E-03
367,00	5,2984E-03
367,37	-7,4549E-03
367,74	-1,0361E-03
368,11	-6,5165E-03
368,48	2,2453E-03
368,85	-5,9248E-03
369,22	3,4319E-04
369,59	-1,8048E-02
369,97	-5,6194E-03
370,34	-8,5320E-03
370,71	-6,4386E-03
371,08	2,6951E-03
371,45	8,6139E-04
371,82	3,3442E-03
372,19	3,9667E-03
372,56	5,8357E-03
372,93	8,7275E-03
373,30	1,4023E-03
373,67	-2,8442E-03
374,04	-5,0077E-03
374,41	1,6020E-03
374,78	3,2364E-03
375,15	-2,8582E-03
375,52	-1,1643E-03
375,89	1,5575E-03
376,26	5,1552E-03
376,63	6,5182E-03
377,00	1,5791E-03
377,38	5,7761E-03
377,75	-2,3353E-03
378,12	1,1713E-02
378,49	-3,4540E-03
378,86	0,0000E00
379,23	-9,2825E-03
379,60	-2,1328E-03
379,97	1,7351E-03
380,34	8,2861E-04
380,71	0,0000E00
381,08	4,0896E-03
381,45	-1,3308E-03
381,82	-1,1028E-03
382,19	4,4373E-03
382,55	-3,1861E-03
382,92	1,1526E-02
383,29	-9,4095E-04
383,66	1,5686E-03
384,03	7,3759E-03
384,40	4,3922E-03
384,77	1,4537E-04
385,14	3,7436E-03
385,51	-3,4843E-03
385,88	-1,0526E-03
386,25	-4,7796E-04
386,62	2,6789E-03
386,99	2,1912E-03
387,36	3,8650E-03
387,73	1,8496E-03
388,10	-2,5686E-04
388,47	-4,3601E-03
388,84	3,4975E-04
389,21	-3,0173E-03
389,58	-3,1634E-03
389,94	-1,1224E-03
390,31	-5,8505E-03
390,68	5,9480E-03
391,05	-1,6053E-03
391,42	1,3524E-03
391,79	6,8722E-04
392,16	5,6722E-04
392,53	2,2269E-03
392,90	5,7717E-03
393,27	4,2577E-03
393,63	2,6955E-03
394,00	5,1607E-03
394,37	2,2890E-03
394,74	5,0299E-03
395,11	1,3268E-03
395,48	-1,1196E-03
395,85	1,5810E-03
396,22	-2,0084E-03
396,58	-3,2564E-03
396,95	-1,9947E-03
397,32	3,0656E-03
397,69	2,8453E-03
398,06	3,2845E-03
398,43	-3,0001E-04
398,80	2,4138E-03
399,16	3,9857E-03
399,53	5,3981E-03
399,90	7,2207E-04
400,27	3,0468E-03
400,64	-4,7707E-04
401,01	1,5989E-03
401,37	2,5659E-04
401,74	2,0581E-03
402,11	-7,5353E-04
402,48	3,6482E-03
402,85	1,3619E-03
403,22	4,4148E-03
403,58	1,7938E-03
403,95	7,9319E-04
404,32	7,4288E-04
404,69	1,6693E-03
405,06	2,8057E-03
405,42	3,6550E-04
405,79	2,3769E-03
406,16	1,4610E-03
406,53	1,1036E-03
406,89	-3,2766E-04
407,26	2,3694E-03
407,63	2,1039E-03
408,00	3,0818E-03
408,37	-6,4197E-04
408,73	4,7476E-03
409,10	3,5252E-03
409,47	3,4524E-03
409,84	2,9926E-03
410,20	9,2892E-04
410,57	1,3595E-03
410,94	4,0676E-04
411,31	2,2278E-03
411,67	1,2771E-03
412,04	4,8532E-04
412,41	2,2049E-03
412,77	1,9777E-03
413,14	7,0315E-04
413,51	9,8911E-05
413,88	3,3229E-03
414,24	-3,8069E-04
414,61	2,0067E-03
414,98	-2,4355E-03
415,34	3,8472E-04
415,71	1,8967E-03
416,08	2,5028E-03
416,45	3,2238E-03
416,81	-3,2878E-04
417,18	2,1156E-03
417,55	3,3421E-03
417,91	3,8231E-03
418,28	3,4025E-03
418,65	4,1209E-03
419,01	5,2999E-03
419,38	2,8163E-03
419,75	6,1293E-03
420,11	4,1919E-03
420,48	4,9846E-03
420,85	1,2050E-02
421,21	4,7526E-03
421,58	5,7298E-03
421,95	7,2813E-04
422,31	5,0710E-03
422,68	1,5940E-03
423,05	1,3345E-03
423,41	6,7706E-03
423,78	2,6205E-03
424,15	6,5396E-03
424,51	6,1091E-03
424,88	4,2795E-03
425,24	6,7420E-03
425,61	7,4591E-03
425,98	9,3580E-03
426,34	8,7538E-03
426,71	9,6890E-03
427,07	8,2352E-03
427,44	1,0204E-02
427,81	8,2832E-03
428,17	8,1077E-03
428,54	1,1731E-02
428,90	1,2443E-02
429,27	8,8410E-03
429,64	1,4213E-02
430,00	1,1865E-02
430,37	1,5407E-02
430,73	1,4919E-02
431,10	1,8049E-02
431,46	1,7540E-02
431,83	2,0595E-02
432,20	2,1060E-02
432,56	2,2740E-02
432,93	2,5757E-02
433,29	2,7593E-02
433,66	2,7692E-02
434,02	2,9729E-02
434,39	3,0914E-02
434,75	3,3814E-02
435,12	3,0948E-02
435,49	4,1028E-02
435,85	4,6165E-02
436,22	4,3681E-02
436,58	4,8304E-02
436,95	5,0710E-02
437,31	5,6695E-02
437,68	6,1707E-02
438,04	6,6777E-02
438,41	6,9914E-02
438,77	7,1250E-02
439,14	8,6100E-02
439,50	8,0425E-02
439,87	8,7399E-02
440,23	9,3937E-02
440,60	9,8060E-02
440,96	1,0721E-01
441,33	1,1461E-01
441,69	1,2341E-01
442,06	1,3026E-01
442,42	1,4028E-01
442,78	1,5159E-01
443,15	1,6343E-01
443,51	1,7385E-01
443,88	1,7711E-01
444,24	1,9063E-01
444,61	2,0964E-01
444,97	2,2993E-01
445,34	2,2860E-01
445,70	2,5489E-01
446,07	2,7399E-01
446,43	2,8432E-01
446,79	2,9379E-01
447,16	3,2276E-01
447,52	3,4863E-01
447,89	3,7418E-01
448,25	3,9082E-01
448,62	4,0941E-01
448,98	4,6616E-01
449,34	4,8079E-01
449,71	5,1243E-01
450,07	5,5187E-01
450,44	5,7053E-01
450,80	5,7796E-01
451,16	6,4548E-01
451,53	6,5504E-01
451,89	7,2138E-01
452,25	7,2751E-01
452,62	7,7919E-01
452,98	8,0248E-01
453,35	8,6955E-01
453,71	9,2336E-01
454,07	9,8908E-01
454,44	9,7129E-01
454,80	9,9977E-01
455,16	1,0497E00
455,53	1,0634E00
455,89	1,1491E00
456,25	1,1682E00
456,62	1,1987E00
456,98	1,2595E00
457,34	1,2736E00
457,71	1,3054E00
458,07	1,3253E00
458,43	1,4199E00
458,80	1,4147E00
459,16	1,3955E00
459,52	1,4049E00
459,89	1,4468E00
460,25	1,4205E00
460,61	1,4403E00
460,98	1,4593E00
461,34	1,4500E00
461,70	1,4683E00
462,07	1,4556E00
462,43	1,4001E00
462,79	1,4638E00
463,15	1,4242E00
463,52	1,3751E00
463,88	1,4007E00
464,24	1,3909E00
464,61	1,3222E00
464,97	1,3293E00
465,33	1,2969E00
465,69	1,2748E00
466,06	1,2473E00
466,42	1,1923E00
466,78	1,1849E00
467,14	1,1551E00
467,51	1,1367E00
467,87	1,0781E00
468,23	1,0611E00
468,59	1,0145E00
468,95	9,6631E-01
469,32	9,6643E-01
469,68	9,0618E-01
470,04	8,8619E-01
470,40	8,7299E-01
470,77	8,3190E-01
471,13	8,1512E-01
471,49	7,9255E-01
471,85	7,5729E-01
472,21	7,2296E-01
472,58	7,2175E-01
472,94	6,6995E-01
473,30	6,4871E-01
473,66	6,4218E-01
474,02	6,0268E-01
474,39	6,1427E-01
474,75	5,6739E-01
475,11	5,3731E-01
475,47	5,2948E-01
475,83	5,1803E-01
476,19	4,7997E-01
476,56	4,7190E-01
476,92	4,7189E-01
477,28	4,5133E-01
477,64	4,4365E-01
478,00	4,1925E-01
478,36	4,0367E-01
478,72	3,8254E-01
479,09	3,7010E-01
479,45	3,6152E-01
479,81	3,5913E-01
480,17	3,5179E-01
480,53	3,2277E-01
480,89	3,2325E-01
481,25	3,1108E-01
481,61	2,9178E-01
481,97	2,9483E-01
482,34	2,7087E-01
482,70	2,6822E-01
483,06	2,5390E-01
483,42	2,4847E-01
483,78	2,4098E-01
484,14	2,2738E-01
484,50	2,1590E-01
484,86	2,0547E-01
485,22	2,0298E-01
485,58	1,9200E-01
485,94	1,9177E-01
486,31	1,8161E-01
486,67	1,6676E-01
487,03	1,6443E-01
487,39	1,6197E-01
487,75	1,5033E-01
488,11	1,4788E-01
488,47	1,4619E-01
488,83	1,3823E-01
489,19	1,3026E-01
489,55	1,2791E-01
489,91	1,2039E-01
490,27	1,1621E-01
490,63	1,1289E-01
490,99	1,1043E-01
491,35	1,0243E-01
491,71	1,0090E-01
492,07	9,8629E-02
492,43	9,6332E-02
492,79	8,8383E-02
493,15	8,5304E-02
493,51	8,4173E-02
493,87	8,2503E-02
494,23	7,9093E-02
494,59	7,4008E-02
494,95	7,3693E-02
495,31	7,2557E-02
495,67	6,7835E-02
496,03	6,6178E-02
496,39	6,5812E-02
496,75	6,3162E-02
497,11	5,9791E-02
497,47	6,0273E-02
497,83	5,5279E-02
498,19	5,3300E-02
498,55	5,1744E-02
498,91	5,1529E-02
499,27	4,9874E-02
499,63	4,7255E-02
499,98	4,5861E-02
500,34	4,4321E-02
500,70	4,2772E-02
501,06	4,0641E-02
501,42	4,1349E-02
501,78	3,7175E-02
502,14	3,8271E-02
502,50	3,5435E-02
502,86	3,4817E-02
503,22	3,2784E-02
503,58	3,1346E-02
503,94	3,0164E-02
504,29	3,0389E-02
504,65	2,8204E-02
505,01	2,6141E-02
505,37	2,4964E-02
505,73	2,4547E-02
506,09	2,3440E-02
506,45	2,2903E-02
506,81	2,3952E-02
507,16	2,0913E-02
507,52	2,1577E-02
507,88	2,0389E-02
508,24	1,9741E-02
508,60	1,9611E-02
508,96	1,7653E-02
509,32	1,7996E-02
509,67	1,6127E-02
510,03	1,8316E-02
510,39	1,5670E-02
510,75	1,3897E-02
511,11	1,4381E-02
511,47	1,5115E-02
511,82	1,4193E-02
512,18	1,2906E-02
512,54	1,2894E-02
512,90	1,3119E-02
513,26	1,2188E-02
513,61	1,1559E-02
513,97	1,1394E-02
514,33	1,0675E-02
514,69	1,1650E-02
515,05	1,0216E-02
515,40	1,0132E-02
515,76	1,0040E-02
516,12	9,4542E-03
516,48	9,4283E-03
516,83	9,5163E-03
517,19	8,0704E-03
517,55	8,9011E-03
517,91	8,7089E-03
518,26	7,9872E-03
518,62	7,2180E-03
518,98	6,9202E-03
519,34	6,6146E-03
519,69	7,3240E-03
520,05	6,4632E-03
520,41	5,9920E-03
520,77	6,1285E-03
521,12	5,8760E-03
521,48	6,3648E-03
521,84	6,0164E-03
522,19	6,1855E-03
522,55	5,4648E-03
522,91	5,9863E-03
523,27	4,2004E-03
523,62	4,7159E-03
523,98	4,0506E-03
524,34	4,5749E-03
524,69	3,8102E-03
525,05	5,0330E-03
525,41	4,5200E-03
525,76	3,6596E-03
526,12	3,8210E-03
526,48	4,4681E-03
526,83	4,4362E-03
527,19	3,5066E-03
527,55	4,2946E-03
527,90	3,1254E-03
528,26	4,0997E-03
528,62	3,3635E-03
528,97	3,8211E-03
529,33	2,4934E-03
529,69	2,2669E-03
530,04	3,0819E-03
530,40	2,4538E-03
530,76	3,3389E-03
531,11	1,9920E-03
531,47	2,5495E-03
531,82	2,4830E-03
532,18	2,4452E-03
532,54	2,7767E-03
532,89	2,0383E-03
533,25	2,7836E-03
533,60	2,2034E-03
533,96	2,0283E-03
534,32	3,0515E-03
534,67	3,0681E-03
535,03	2,9270E-03
535,38	2,8115E-03
535,74	2,5064E-03
536,10	1,4692E-03
536,45	1,5681E-03
536,81	2,3855E-03
537,16	1,8491E-03
537,52	1,2033E-03
537,87	2,4497E-03
538,23	1,4324E-03
538,58	1,7578E-03
538,94	6,4190E-04
539,30	1,4768E-03
539,65	9,7618E-04
540,01	1,3498E-03
540,36	1,2013E-03
540,72	7,0699E-04
541,07	1,6602E-03
541,43	2,0212E-03
541,78	1,7750E-03
542,14	1,4417E-03
542,49	7,3520E-04
542,85	1,0391E-03
543,20	-4,9487E-05
543,56	8,3002E-04
543,91	1,1446E-03
544,27	7,9883E-04
544,62	1,2855E-03
544,98	1,6472E-03
545,33	2,9217E-04
545,69	1,3700E-03
546,04	5,3630E-04
546,40	1,1988E-03
546,75	1,9234E-04
547,10	4,3364E-04
547,46	1,5215E-03
547,81	1,3734E-03
548,17	9,3985E-04
548,52	8,2376E-04
548,88	1,2028E-03
549,23	7,9788E-04
549,59	8,2241E-04
549,94	5,7951E-04
550,29	1,3920E-03
550,65	1,3000E-03
551,00	9,9273E-04
551,36	7,5073E-04
551,71	1,3782E-03
552,06	9,9895E-04
552,42	9,4074E-04
552,77	1,4277E-03
553,13	9,9379E-04
553,48	1,2792E-03
553,83	1,1477E-03
554,19	1,1516E-03
554,54	1,7038E-04
554,90	6,7915E-04
555,25	4,8555E-04
555,60	-2,4096E-05
555,96	7,7598E-04
556,31	7,3031E-05
556,66	2,4468E-04
557,02	-7,5049E-04
557,37	2,4493E-04
557,72	-1,9579E-04
558,08	3,6225E-04
558,43	6,3698E-04
558,79	4,6654E-04
559,14	1,0029E-03
559,49	9,3074E-04
559,85	5,6054E-04
560,20	1,0612E-03
560,55	4,4217E-04
560,90	5,8727E-04
561,26	3,6818E-04
561,61	1,3284E-03
561,96	-9,9387E-05
562,32	7,7156E-04
562,67	1,7438E-03
563,02	1,0723E-03
563,38	4,4470E-04
563,73	-7,4805E-05
564,08	4,7670E-04
564,43	2,2488E-04
564,79	4,2698E-04
565,14	5,0679E-05
565,49	5,5744E-04
565,84	-3,2986E-04
566,20	6,1216E-04
566,55	-8,3198E-04
566,90	5,1379E-05
567,25	1,5173E-03
567,61	8,3670E-04
567,96	-5,1083E-05
568,31	8,4327E-04
568,66	6,3651E-04
569,02	4,3540E-04
569,37	2,8532E-04
569,72	6,9694E-04
570,07	3,3544E-04
570,42	7,7714E-05
570,78	-3,1381E-04
571,13	-3,1195E-04
571,48	-1,5648E-04
571,83	-3,3965E-04
572,18	-2,3448E-04
572,54	4,4291E-04
572,89	6,2826E-04
573,24	7,0209E-04
573,59	-3,1368E-04
573,94	-2,3868E-04
574,30	9,4709E-04
574,65	7,3898E-04
575,00	-3,1470E-04
575,35	5,2886E-05
575,70	2,3810E-04
576,05	-2,1075E-04
576,40	8,2537E-04
576,76	-1,0050E-03
577,11	9,2311E-04
577,46	9,8065E-04
577,81	5,3109E-05
578,16	1,0650E-04
578,51	1,3407E-04
578,86	3,4642E-04
579,21	5,3308E-04
579,57	-4,0435E-04
579,92	4,5323E-04
580,27	2,1440E-04
580,62	1,0800E-04
580,97	2,4182E-04
581,32	2,6938E-04
581,67	-7,2788E-04
582,02	-4,0607E-04
582,37	-7,0528E-04
582,72	-4,8729E-04
583,08	-6,2637E-04
583,43	1,4581E-03
583,78	2,7088E-05
584,13	6,4939E-04
584,48	-1,0887E-04
584,83	-1,3629E-04
585,18	3,8111E-04
585,53	-7,6106E-04
585,88	3,2413E-04
586,23	6,3394E-04
586,58	-9,0113E-04
586,93	7,3203E-04
587,28	6,3046E-04
587,63	1,7093E-03
587,98	9,3053E-04
588,33	5,4641E-05
588,68	2,7686E-04
589,03	-3,0030E-04
589,38	8,2568E-05
589,73	2,7580E-05
590,08	4,4053E-04
590,43	1,6589E-04
590,78	9,0582E-04
591,13	-6,0529E-04
591,48	8,2398E-05
591,83	2,7441E-05
592,18	6,3368E-04
592,53	1,1023E-04
592,88	6,0417E-04
593,23	-3,3297E-04
593,58	1,0512E-03
593,93	1,1427E-03
594,28	-3,8667E-04
594,63	-4,4668E-04
594,98	-2,7604E-05
595,33	-5,2680E-04
595,68	-4,4702E-04
596,02	1,6738E-04
596,37	6,6718E-04
596,72	2,5275E-04
597,07	-2,5114E-04
597,42	3,9445E-04
597,77	-1,9571E-04
598,12	-1,9653E-04
598,47	3,4040E-04
598,82	-6,4561E-04
599,17	1,1887E-03
599,52	4,5475E-04
599,86	3,6683E-04
600,21	-5,9717E-04
600,56	1,1489E-03
600,91	-2,8562E-05
601,26	-2,8486E-05
601,61	3,1265E-04
601,96	1,0310E-03
602,30	-2,9048E-04
602,65	1,1496E-04
603,00	6,4197E-04
603,35	1,1238E-03
603,70	9,0250E-04
604,05	-5,8313E-04
604,40	1,3092E-03
604,74	8,4329E-04
605,09	4,1230E-04
605,44	-1,4697E-04
605,79	5,8892E-04
606,14	6,1899E-04
606,48	-4,7405E-04
606,83	2,3647E-04
607,18	0,0000E00
607,53	0,0000E00
607,88	1,1935E-04
608,22	2,6858E-04
608,57	9,2584E-04
608,92	-6,0276E-04
609,27	-2,1142E-04
609,62	-7,2492E-04
609,96	-6,6445E-04
610,31	-1,2432E-03
610,66	-8,8290E-04
611,01	3,6561E-04
611,35	-6,4258E-04
611,70	3,0772E-05
612,05	4,9221E-04
612,40	1,9476E-03
612,74	7,7544E-04
613,09	2,1670E-04
613,44	4,0305E-04
613,79	4,9993E-04
614,13	5,3367E-04
614,48	4,6631E-04
614,83	1,0429E-03
615,17	2,8512E-04
615,52	5,6916E-04
615,87	-3,7941E-04
616,22	-1,2626E-04
616,56	3,4834E-04
616,91	-5,4325E-04
617,26	-3,2040E-04
617,60	-5,7374E-04
617,95	7,6926E-04
618,30	-4,8501E-04
618,64	2,9003E-04
618,99	2,2534E-04
619,34	-1,9607E-04
619,68	-7,1116E-04
620,03	-4,5420E-04
620,38	1,3942E-03
620,72	-1,3623E-03
621,07	1,6244E-04
621,42	6,2441E-04
621,76	-8,4749E-04
622,11	7,8544E-04
622,45	0,0000E00
622,80	-1,3188E-04
623,15	3,3452E-05
623,49	-2,3234E-04
623,84	2,6718E-04
624,18	1,6640E-04
624,53	-6,6898E-05
624,88	1,6726E-03
625,22	-3,3669E-05
625,57	-1,6802E-04
625,91	5,7828E-04
626,26	-7,1669E-04
626,61	-3,3901E-05
626,95	8,1652E-04
627,30	-6,8208E-04
627,64	-6,1218E-04
627,99	-1,7174E-04
628,33	6,4767E-04
628,68	-5,1564E-04
629,03	1,3446E-03
629,37	1,7231E-04
629,72	-1,7359E-04
630,06	5,1571E-04
630,41	3,1409E-04
630,75	4,8700E-04
631,10	1,0451E-04
631,44	-1,3901E-04
631,79	3,1589E-04
632,13	1,7457E-04
632,48	-2,1025E-04
632,82	-6,3004E-04
633,17	-1,1260E-03
633,51	4,2710E-04
633,86	3,1844E-04
634,20	-1,6008E-03
634,55	-1,4891E-03
634,89	-1,0702E-03
635,24	-6,4453E-04
635,58	5,0198E-04
635,93	-3,2269E-04
636,27	-3,5733E-04
636,62	3,6092E-05
636,96	-1,0066E-03
637,30	1,0492E-03
637,65	6,9056E-04
637,99	7,1978E-05
638,34	1,1627E-03
638,68	-4,7658E-04
639,03	-6,1762E-04
639,37	2,5709E-04
639,71	2,9152E-04
640,06	1,2930E-03
640,40	2,2010E-04
640,75	-3,7113E-05
641,09	-1,2137E-03
641,44	-8,1033E-04
641,78	0,0000E00
642,12	4,4524E-04
642,47	-6,7127E-04
642,81	-1,2192E-03
643,15	-6,3793E-04
643,50	9,3678E-04
643,84	8,9526E-04
644,19	-3,7682E-05
644,53	-1,5049E-04
644,87	6,7644E-04
645,22	-3,7721E-04
645,56	1,0590E-03
645,90	-1,5574E-03
646,25	2,6514E-04
646,59	1,6754E-03
646,93	5,7282E-04
647,28	-1,1421E-04
647,62	5,3535E-04
647,96	-1,5409E-04
648,31	1,1558E-04
648,65	-7,7023E-05
648,99	-9,1878E-04
649,34	3,8774E-04
649,68	-3,8794E-04
650,02	1,0885E-03
650,36	3,4943E-04
650,71	1,9451E-04
651,05	5,4820E-04
651,39	-3,9262E-04
651,74	3,8994E-04
652,08	3,5541E-04
652,42	7,8438E-05
652,76	-1,1940E-04
653,11	-5,1754E-04
653,45	6,3839E-04
653,79	7,2145E-04
654,13	-2,7884E-04
654,48	-1,2387E-03
654,82	-8,4129E-04
655,16	2,4263E-04
655,50	2,8421E-04
655,85	1,3072E-03
656,19	-1,0060E-03
656,53	0,0000E00
656,87	-5,7059E-04
657,21	7,3672E-04
657,56	1,7220E-03
657,90	2,4544E-04
658,24	2,8909E-04
658,58	-8,2799E-05
658,92	-4,9218E-04
659,27	-4,1130E-05
659,61	-6,2123E-04
659,95	1,6565E-04
660,29	-2,2083E-03
660,63	-8,3928E-04
660,97	-1,2493E-03
661,32	-1,1771E-03
661,66	-4,1950E-04
662,00	-5,8804E-04
662,34	2,9689E-04
662,68	6,8175E-04
663,02	1,7372E-03
663,37	4,6499E-04
663,71	1,2864E-03
664,05	-4,7027E-04
664,39	-2,1460E-04
664,73	1,1573E-03
665,07	8,3114E-04
665,41	5,6138E-04
665,75	-9,9526E-04
666,09	-1,0016E-03
666,44	-5,1773E-04
666,78	-5,2581E-04
667,12	8,8293E-04
667,46	4,8205E-04
667,80	-4,4364E-05
668,14	-9,7639E-04
668,48	-9,2921E-04
668,82	1,2482E-03
669,16	8,0181E-04
669,50	1,2499E-03
669,84	-6,2795E-04
670,18	-5,8884E-04
670,52	6,8068E-04
670,86	1,7791E-03
671,20	-1,3708E-04
671,54	-2,3069E-04
671,88	3,2269E-04
672,22	-6,3541E-04
672,57	-6,9039E-04
672,91	-1,3916E-04
673,25	-1,8779E-04
673,59	-1,0566E-03
673,93	-1,0719E-03
674,27	0,0000E00
674,61	1,0910E-03
674,95	-7,0663E-04
675,28	1,8938E-04
675,62	-9,0235E-04
675,96	-6,1683E-04
676,30	4,2566E-04
676,64	-1,1049E-03
676,98	8,5839E-04
677,32	-1,1011E-03
677,66	-1,0631E-03
678,00	-5,7522E-04
678,34	1,2031E-03
678,68	1,0216E-03
679,02	-6,8157E-04
679,36	6,3643E-04
679,70	1,8701E-03
680,04	9,7971E-04
680,38	-9,3976E-04
680,72	-1,5794E-03
681,06	8,3960E-04
681,39	1,4928E-03
681,73	-1,1391E-03
682,07	-2,1956E-03
682,41	1,0983E-03
682,75	-1,5057E-04
683,09	5,0195E-04
683,43	9,6340E-04
683,77	-5,0983E-05
684,11	6,0610E-04
684,44	-1,6347E-03
684,78	-5,1113E-05
685,12	-1,6477E-03
685,46	-2,7254E-03
685,80	-7,7439E-04
686,14	1,0296E-04
686,48	-1,1440E-03
686,81	-9,9368E-04
687,15	5,2171E-04
687,49	5,7687E-04
687,83	1,0354E-04
688,17	1,1661E-03
688,51	1,5381E-03
688,84	1,3310E-03
689,18	9,0297E-04
689,52	-2,6795E-04
689,86	1,3862E-03
690,20	-9,6072E-04
690,53	-8,5620E-04
690,87	3,2129E-04
691,21	1,7862E-03
691,55	-1,1923E-03
691,88	4,3709E-04
692,22	-1,5914E-03
692,56	1,6365E-04
692,90	1,0936E-03
693,23	6,0411E-04
693,57	1,6520E-04
693,91	-4,4143E-04
694,25	-3,3146E-04
694,58	1,6577E-04
694,92	-1,1074E-04
695,26	3,8672E-04
695,60	1,6820E-04
695,93	2,6201E-03
696,27	1,0608E-03
696,61	1,5219E-03
696,94	1,9776E-03
697,28	-2,8347E-04
697,62	1,7196E-04
697,96	5,1335E-04
698,29	8,5170E-04
698,63	4,5304E-04
698,97	2,0690E-03
699,30	2,8644E-04
699,64	5,7118E-05
699,98	1,5568E-03
700,31	-1,7235E-04
700,65	-2,2397E-03
700,99	-1,3416E-03
701,32	2,0360E-03
701,66	-9,3070E-04
702,00	-1,1690E-04
702,33	-1,1632E-04
702,67	-6,3846E-04
703,00	-1,1708E-04
703,34	8,1778E-04
703,68	-1,2370E-03
704,01	1,7284E-03
704,35	-7,1650E-04
704,69	-7,7226E-04
705,02	-2,0861E-03
705,36	2,0727E-03
705,69	3,5859E-04
706,03	1,5647E-03
706,36	1,3711E-03
706,70	-6,6129E-04
707,04	-1,2660E-03
707,37	-1,0185E-03
707,71	1,3181E-03
708,04	2,2417E-03
708,38	1,0826E-03
708,71	1,5096E-03
709,05	-3,6712E-04
709,39	-1,7716E-03
709,72	-9,8483E-04
710,06	-2,4488E-03
710,39	-2,6571E-03
710,73	-2,2690E-03
711,06	-7,4326E-04
711,40	-6,2086E-04
711,73	-9,2703E-04
712,07	6,1811E-04
712,40	-1,9202E-03
712,74	-9,9034E-04
713,07	-3,7424E-04
713,41	1,0636E-03
713,74	2,5039E-04
714,08	1,3231E-03
714,41	-4,4623E-04
714,75	8,2367E-04
715,08	0,0000E00
715,42	-5,0821E-04
715,75	2,5510E-04
716,08	1,2753E-03
716,42	-6,4134E-05
716,75	-1,3429E-03
717,09	3,8546E-04
717,42	1,2912E-04
717,76	-7,0579E-04
718,09	-3,2130E-04
718,43	-8,4584E-04
718,76	-3,4197E-03
719,09	6,4569E-05
719,43	8,4818E-04
719,76	9,1920E-04
720,10	-3,9462E-04
720,43	-5,8888E-04
720,76	-2,1656E-03
721,10	-4,5534E-04
721,43	1,5735E-03
721,76	-1,7745E-03
722,10	-9,2518E-04
722,43	1,8652E-03
722,77	1,2000E-03
723,10	7,3520E-04
723,43	-2,0117E-04
723,77	2,0231E-04
724,10	5,3868E-04
724,43	4,0188E-04
724,77	2,6901E-04
725,10	-8,1721E-04
725,43	2,6897E-04
725,77	0,0000E00
726,10	2,7846E-03
726,43	1,6981E-03
726,77	8,9763E-04
727,10	-2,2938E-03
727,43	1,5169E-03
727,77	-2,0743E-04
728,10	-1,3895E-04
728,43	-2,4781E-03
728,76	5,5781E-04
729,10	1,7532E-03
729,43	-2,2093E-03
729,76	-1,5395E-03
730,09	1,8521E-03
730,43	-4,9272E-04
730,76	-3,5184E-04
731,09	-9,8850E-04
731,42	7,0815E-05
731,76	6,3918E-04
732,09	1,7980E-03
732,42	8,5725E-04
732,75	-1,2886E-03
733,09	-7,2089E-04
733,42	-1,5291E-03
733,75	2,9532E-03
734,08	7,9952E-04
734,41	1,4638E-03
734,75	-2,6832E-03
735,08	6,5579E-04
735,41	8,1230E-04
735,74	7,4058E-05
736,07	-2,8350E-03
736,41	-5,2594E-04
736,74	5,2289E-04
737,07	-7,4614E-05
737,40	-1,6491E-03
737,73	4,4801E-04
738,06	2,3515E-03
738,40	8,2423E-04
738,73	6,8030E-04
739,06	1,9143E-03
739,39	9,9153E-04
739,72	3,8308E-04
740,05	-7,6196E-04
740,38	3,8825E-04
740,72	-1,5470E-03
741,05	2,0236E-03
741,38	-1,0151E-03
741,71	-3,1387E-04
742,04	1,4918E-03
742,37	1,0329E-03
742,70	-1,0295E-03
743,03	1,5828E-04
743,36	1,5124E-03
743,69	2,4053E-03
744,02	1,6067E-03
744,36	-1,6885E-03
744,69	8,0378E-05
745,02	-2,0958E-03
745,35	2,1847E-03
745,68	9,7952E-04
746,01	6,6347E-04
746,34	3,9219E-03
746,67	-8,3201E-05
747,00	3,1393E-03
747,33	5,0231E-04
747,66	-5,0222E-04
747,99	-2,6105E-03
748,32	-1,2561E-03
748,65	-9,2759E-04
748,98	5,0508E-04
749,31	2,0348E-03
749,64	-1,0190E-03
749,97	-1,1111E-03
750,30	-1,0254E-03
750,63	-5,1957E-04
750,96	-3,4742E-04
751,29	3,5949E-03
751,62	-1,7340E-04
751,95	1,4930E-03
752,28	1,7585E-03
752,61	2,2019E-03
752,94	1,5107E-03
753,27	-1,7832E-03
753,60	-1,6021E-03
753,92	-1,0710E-03
754,25	-1,1715E-03
754,58	-1,8183E-04
754,91	-1,9028E-03
755,24	1,6282E-03
755,57	-1,0037E-03
755,90	2,1054E-03
756,23	1,3758E-03
756,56	-2,7502E-04
756,89	-4,0288E-03
757,22	-1,6592E-03
757,54	3,7903E-03
757,87	-1,4048E-03
758,20	-1,0273E-03
758,53	1,9759E-03
758,86	-2,1544E-03
759,19	-1,4311E-03
759,52	-3,2350E-03
759,84	9,5973E-05
760,17	-2,3056E-03
760,50	-4,7962E-04
760,83	4,8193E-04
761,16	1,1916E-03
761,49	-2,1588E-03
761,81	-1,5606E-03
762,14	-9,9051E-04
762,47	3,0656E-03
762,80	2,8613E-03
763,13	-3,9819E-04
763,45	-1,3021E-03
763,78	1,9878E-03
764,11	1,3010E-03
764,44	-1,5085E-03
764,77	3,4573E-03
765,09	4,0248E-04
765,42	-3,0536E-04
765,75	-4,1946E-03
766,08	-2,3624E-03
766,40	-1,1303E-03
766,73	-2,6977E-03
767,06	-8,1973E-04
767,39	-1,2482E-03
767,71	-3,7485E-03
768,04	4,0592E-03
768,37	-1,0547E-04
768,70	-5,2658E-04
769,02	2,1265E-04
769,35	2,0313E-03
769,68	-2,8801E-03
770,00	-4,2646E-03
770,33	2,2468E-03
770,66	1,1860E-03
770,99	2,5014E-03
771,31	2,4937E-03
771,64	5,4778E-04
771,97	9,8338E-04
772,29	3,6624E-03
772,62	-2,6465E-03
772,95	-2,8901E-03
773,27	-2,9264E-03
773,60	1,2257E-03
773,93	-1,3352E-03
774,25	5,5445E-04
774,58	-2,0364E-03
774,90	3,4273E-04
775,23	3,3221E-03
775,56	0,0000E00
775,88	1,0347E-03
776,21	2,8659E-03
776,54	5,6337E-03
776,86	8,0625E-04
777,19	-1,2780E-03
777,51	1,1683E-03
777,84	-2,3232E-04
778,16	-1,7616E-03
778,49	-2,9530E-03
778,82	-2,1127E-03
779,14	-9,3961E-04
779,47	1,9004E-03
779,79	-1,6713E-03
780,12	2,0463E-03
780,44	-1,9184E-03
780,77	-1,2291E-03
781,10	-2,1791E-03
781,42	-1,2103E-04
781,75	1,4662E-03
782,07	-4,9546E-04
782,40	-2,3444E-03
782,72	-3,5966E-03
783,05	0,0000E00
783,37	-5,6688E-03
783,70	5,0757E-04
784,02	-3,3770E-03
784,35	-4,8848E-03
784,67	-1,7736E-03
785,00	-1,0199E-03
785,32	-1,7995E-03
785,65	5,1172E-04
785,97	2,5832E-04
786,30	2,5941E-04
786,62	3,4640E-03
786,94	3,2455E-03
787,27	3,6500E-03
787,59	2,3865E-03
787,92	6,2601E-03
788,24	2,4314E-03
788,57	2,2479E-03
788,89	4,6059E-03
789,22	2,6319E-03
789,54	2,2088E-03
789,86	4,7178E-03
790,19	-5,9962E-03
790,51	2,4820E-03
790,84	1,1918E-03
791,16	2,9251E-03
791,48	7,9694E-04
791,81	-3,1849E-03
792,13	2,6500E-03
792,45	-1,6099E-03
792,78	1,7186E-03
793,10	-3,9536E-04
793,43	3,4233E-03
793,75	-6,6672E-04
794,07	4,6780E-03
794,40	3,5781E-03
794,72	-1,4638E-03
795,04	-3,8435E-03
795,37	-1,5761E-03
795,69	-1,3259E-04
796,01	3,8842E-04
796,34	3,5443E-03
796,66	7,9611E-04
796,98	-1,8358E-03
797,30	-1,3284E-03
797,63	-3,9334E-04
797,95	-3,2445E-03
798,27	2,7516E-03
798,60	2,5899E-04
798,92	-3,1687E-03
799,24	-3,2482E-03
799,56	-1,0412E-03
799,89	0,0000E00
800,21	-2,7423E-03
800,53	2,8538E-03
800,85	-1,0460E-03
801,18	2,9968E-03
801,50	-9,2082E-04
801,82	0,0000E00
802,14	-2,3807E-03
802,47	-2,5165E-03
802,79	-1,3108E-04
803,11	5,9445E-03
803,43	1,5675E-03
803,75	-2,2447E-03
804,08	-3,5987E-03
804,40	-1,8514E-03
804,72	6,5341E-04
805,04	1,0654E-03
805,36	1,5949E-03
805,69	-4,7762E-03
806,01	-1,1869E-03
806,33	-2,2758E-03
806,65	-4,2885E-03
806,97	-5,6477E-03
807,29	-6,7260E-03
807,62	-3,9734E-04
807,94	-3,3593E-03
808,26	-2,5548E-03
808,58	2,0404E-03
808,90	1,7786E-03
809,22	-3,0377E-03
809,54	1,4952E-03
809,86	-1,5184E-03
810,18	-1,6567E-03
810,51	0,0000E00
810,83	8,8795E-03
811,15	4,1510E-04
811,47	1,3993E-03
811,79	-3,3047E-03
812,11	5,5318E-04
812,43	-1,6701E-03
812,75	7,0352E-04
813,07	-3,0888E-03
813,39	-5,5948E-04
813,71	-1,7080E-03
814,03	4,2046E-03
814,35	-2,5494E-03
814,67	2,9546E-03
814,99	3,7133E-03
815,31	-3,5792E-03
815,64	2,8578E-04
815,96	-8,5328E-03
816,28	4,2885E-04
816,60	1,5928E-03
816,92	1,1331E-03
817,24	-7,2396E-04
817,56	1,0162E-03
817,88	3,9808E-03
818,19	1,4592E-04
818,51	3,0919E-03
818,83	2,9433E-04
819,15	-1,0231E-03
819,47	-3,8577E-03
819,79	2,9817E-03
820,11	-1,4845E-04
820,43	-2,1035E-03
820,75	-7,5875E-04
821,07	-5,6204E-03
821,39	-1,3645E-03
821,71	1,2076E-03
822,03	3,6989E-03
822,35	2,4573E-03
822,67	2,1413E-03
822,99	1,0873E-03
823,31	3,0567E-04
823,62	-3,6996E-03
823,94	2,1943E-03
824,26	-2,3542E-03
824,58	-4,6667E-04
824,90	-3,2910E-03
825,22	4,9981E-03
825,54	3,9896E-03
825,86	-2,4023E-03
826,17	2,7292E-03
826,49	1,1170E-03
826,81	-8,0623E-04
827,13	2,2460E-03
827,45	6,4509E-04
827,77	-2,6169E-03
828,08	-1,6261E-04
828,40	1,6362E-04
828,72	-1,6649E-04
829,04	0,0000E00
829,36	3,1114E-03
829,67	-6,6343E-04
829,99	-4,4535E-03
830,31	-1,3390E-03
830,63	-1,6869E-04
830,95	-4,3672E-03
831,26	-5,2086E-03
831,58	-7,1291E-03
831,90	-1,5452E-03
832,22	-5,3398E-03
832,53	-5,5934E-03
832,85	-7,5210E-03
833,17	-3,7760E-03
833,49	4,0046E-03
833,80	-5,9999E-03
834,12	1,9539E-03
834,44	4,4600E-03
834,76	4,7498E-03
835,07	9,8748E-03
835,39	3,7472E-03
835,71	-1,8001E-03
836,02	-1,7908E-04
836,34	2,5125E-03
836,66	-2,8750E-03
836,97	8,9589E-04
837,29	4,3570E-03
837,61	-6,0435E-03
837,93	0,0000E00
838,24	-1,4675E-03
838,56	-9,1652E-04
838,88	-6,8525E-03
839,19	-1,1006E-03
839,51	-2,2193E-03
839,82	-4,5021E-03
840,14	-5,2024E-03
840,46	2,8170E-03
840,77	-1,8895E-04
841,09	5,3262E-03
841,41	3,7663E-04
841,72	3,8300E-04
842,04	4,2206E-03
842,35	-1,9211E-03
842,67	1,1593E-03
842,99	-9,7708E-04
843,30	2,6970E-03
843,62	-1,7646E-03
843,93	2,1811E-03
844,25	2,5130E-03
844,56	8,0355E-04
844,88	-4,4035E-03
845,20	-1,5849E-03
845,51	-2,3904E-03
845,83	0,0000E00
846,14	6,0631E-03
846,46	-1,2004E-03
846,77	-1,8154E-03
847,09	5,3455E-03
847,40	2,8523E-03
847,72	-3,2769E-03
848,03	4,7459E-03
848,35	5,3840E-03
848,66	3,1380E-03
848,98	2,9314E-03
849,29	-2,7176E-03
849,61	-1,4903E-03
849,92	2,9530E-03
850,24	6,2072E-03
850,55	-6,4698E-03
850,87	-1,7051E-03
851,18	4,6974E-03
851,50	2,5796E-03
851,81	-2,1694E-04
852,12	-4,5484E-03
852,44	-2,6237E-03
852,75	2,1915E-04
853,07	-3,8947E-03
853,38	2,8795E-03
853,70	-1,1113E-03
854,01	-6,5232E-03
854,32	-1,7919E-03
854,64	-8,6209E-03
854,95	-8,1151E-03
855,27	-7,4576E-03
855,58	-4,4838E-04
855,89	-7,8628E-03
856,21	2,7367E-03
856,52	-1,3685E-03
856,83	2,5523E-03
857,15	1,3787E-03
857,46	7,4742E-03
857,77	-9,8928E-03
858,09	1,3975E-03
858,40	1,8769E-03
858,71	7,1407E-03
859,03	5,8753E-03
859,34	-1,9207E-03
859,65	2,1456E-03
859,97	7,6927E-03
860,28	5,1261E-03
860,59	9,1895E-03
860,91	-6,8894E-03
861,22	6,4040E-03
861,53	-3,9719E-03
861,84	2,4870E-04
862,16	4,5297E-03
862,47	-6,2746E-03
862,78	1,5187E-03
863,10	7,0414E-03
863,41	-1,0096E-03
863,72	-3,2997E-03
864,03	-7,7305E-04
864,35	-2,5417E-04
864,66	-4,3639E-03
864,97	-1,7890E-03
865,28	-2,0757E-03
865,59	5,3142E-04
865,91	3,1341E-03
866,22	-3,4320E-03
866,53	-1,2063E-02
866,84	-1,5864E-03
867,15	7,8994E-04
867,47	-3,2137E-03
867,78	-7,2490E-03
868,09	4,8812E-03
868,40	7,0909E-03
868,71	6,7812E-03
869,02	9,5590E-03
869,34	-1,2266E-02
869,65	1,0155E-02
869,96	4,7570E-03
870,27	3,6546E-03
870,58	-5,9374E-03
870,89	1,2147E-02
871,20	-1,6784E-03
871,52	-3,6970E-03
871,83	9,9233E-03
872,14	2,8744E-03
872,45	4,0189E-03
872,76	-8,9726E-03
873,07	-8,7085E-04
873,38	-2,3346E-03
873,69	0,0000E00
874,00	6,1943E-03
874,31	1,4921E-03
874,62	5,0196E-03
874,94	-2,6677E-03
875,25	-8,9206E-04
875,56	-9,8081E-03
875,87	-4,8501E-03
876,18	-3,3367E-03
876,49	2,7337E-03
876,80	-1,1107E-02
877,11	-1,5932E-02
877,42	-1,5006E-02
877,73	-3,0958E-04
878,04	-3,6991E-03
878,35	-9,6391E-03
878,66	-5,0257E-03
878,97	1,2429E-03
879,28	-1,2569E-03
879,59	-6,5959E-03
879,90	1,2564E-03
880,21	2,2312E-03
880,52	1,6621E-02
880,83	1,5902E-03
881,14	9,8622E-03
881,45	-1,9218E-03
881,76	3,1867E-03
882,07	7,6365E-03
882,37	-7,9239E-03
882,68	-2,5146E-03
882,99	-6,3769E-04
883,30	-1,5866E-03
883,61	3,1914E-04
883,92	-3,1931E-04
884,23	0,0000E00
884,54	5,5154E-03
884,85	0,0000E00
885,16	0,0000E00
885,47	-9,8684E-03
885,77	-3,1715E-03
886,08	-7,4643E-03
886,39	-1,5284E-02
886,70	1,4026E-02
887,01	1,5900E-02
887,32	8,5735E-03
887,63	8,0273E-03
887,93	6,9451E-03
888,24	6,3347E-04
888,55	6,4379E-04
888,86	3,5306E-03
889,17	0,0000E00
889,47	8,4372E-03
889,78	6,3277E-03
890,09	8,3573E-03
890,40	-1,6053E-03
890,71	-1,1569E-02
891,01	1,0502E-02
891,32	-1,0789E-02
891,63	-5,4726E-03
891,94	-5,8664E-03
892,25	-5,9905E-03
892,55	-6,3587E-03
892,86	5,7631E-03
893,17	-2,5987E-03
893,48	-4,8464E-03
893,78	-1,9400E-03
894,09	4,2188E-03
894,40	9,0583E-03
894,70	1,6189E-03
895,01	1,6040E-03
895,32	-5,0981E-03
895,63	8,7843E-03
895,93	-1,1799E-02
896,24	2,5932E-03
896,55	4,5478E-03
896,85	-3,8577E-03
897,16	1,3011E-03
897,47	9,4368E-03
897,77	3,5477E-03
898,08	4,9222E-03
898,39	8,5361E-03
898,69	-2,9552E-03
899,00	-6,6029E-03
899,31	-1,0232E-02
899,61	6,2312E-03
899,92	-9,4988E-03
900,23	6,6670E-03
900,53	3,3703E-03
900,84	-3,3344E-03
901,14	-4,7112E-03
901,45	-1,0630E-02
901,76	-1,6047E-02
902,06	2,3355E-03
902,37	-6,0286E-03
902,67	2,6960E-03
902,98	1,3427E-03
903,29	-2,7109E-03
903,59	-1,3551E-03
903,90	3,4572E-03
904,20	-7,1907E-03
904,51	3,4278E-03
904,81	-6,9114E-04
905,12	-1,0228E-03
905,42	-2,0756E-03
905,73	-3,1179E-03
906,03	4,2448E-03
906,34	-2,8051E-03
906,64	1,1364E-02
906,95	1,7528E-03
907,25	-6,8159E-03
907,56	8,6590E-03
907,86	3,9536E-03
908,17	4,3041E-03
908,47	-2,9126E-03
908,78	5,1226E-03
909,08	6,9658E-03
909,39	-7,3525E-03
909,69	1,4823E-03
910,00	5,2051E-03
910,30	2,2410E-03
910,61	-4,8924E-03
910,91	0,0000E00
911,21	9,0954E-03
911,52	-8,1160E-03
911,82	7,3895E-03
912,13	-6,5879E-03
912,43	-9,6675E-03
912,74	9,2846E-03
913,04	2,7236E-03
913,34	-2,7368E-03
913,65	-1,0651E-02
913,95	3,5440E-03
914,25	-1,0871E-02
914,56	-3,6454E-03
914,86	-3,6749E-03
915,17	-2,4509E-03
915,47	-6,5036E-03
915,77	1,0434E-02
916,08	-9,4760E-03
916,38	-8,2733E-03
916,68	7,8983E-03
916,99	7,8590E-03
917,29	-2,5082E-03
917,59	4,2477E-03
917,90	8,3930E-04
918,20	1,2564E-02
918,50	-2,1167E-03
918,80	5,5237E-03
919,11	-1,6300E-02
919,41	3,9443E-03
919,71	4,3926E-04
920,02	1,5235E-02
920,32	-4,3428E-03
920,62	-1,0328E-02
920,92	1,7639E-03
921,23	-1,1526E-02
921,53	-1,5896E-02
921,83	8,1059E-03
922,13	-4,5123E-03
922,44	-8,7853E-03
922,74	-7,3753E-03
923,04	-4,1289E-03
923,34	1,0209E-02
923,64	-5,0227E-03
923,95	-3,7728E-03
924,25	-5,1794E-03
924,55	-2,3239E-03
924,85	-2,8693E-03
925,15	-6,1831E-03
925,46	-1,9300E-03
925,76	-4,3925E-03
926,06	1,3605E-02
926,36	1,6144E-02
926,66	1,9783E-03
926,96	0,0000E00
927,26	5,0564E-04
927,57	1,3453E-02
927,87	1,1117E-02
928,17	9,2861E-03
928,47	1,1636E-02
928,77	4,0889E-03
929,07	2,3904E-02
929,37	6,7993E-03
929,67	-1,5820E-02
929,98	7,9257E-03
930,28	8,0381E-03
930,58	-1,5934E-03
930,88	5,8145E-03
931,18	5,4006E-04
931,48	1,0939E-03
931,78	3,8988E-03
932,08	1,3286E-02
932,38	3,8597E-03
932,68	1,9683E-02
932,98	8,5265E-03
933,28	5,1179E-03
933,58	1,3256E-02
933,88	-4,6274E-03
934,18	5,6847E-04
934,48	-8,7340E-03
934,78	6,4501E-03
935,08	-5,2108E-03
935,38	-7,6563E-03
935,68	-3,0364E-03
935,98	5,5461E-03
936,28	7,9725E-03
936,58	-2,4510E-03
936,88	-1,5871E-02
937,18	-3,7589E-03
937,48	8,7260E-03
937,78	8,8267E-03
938,08	1,1533E-02
938,38	1,9763E-02
938,68	-1,2789E-03
938,98	-2,5799E-03
939,28	-2,5521E-02
939,57	-9,5992E-03
939,87	1,0634E-02
940,17	6,4999E-03
940,47	-7,1611E-03
940,77	-1,4363E-02
941,07	-1,4095E-02
941,37	-3,3128E-03
941,67	2,0498E-02
941,97	-1,4587E-02
942,26	0,0000E00
942,56	-1,6436E-02
942,86	-1,8132E-02
943,16	-2,1863E-02
943,46	-1,8325E-02
943,76	-4,2301E-03
944,06	-1,4057E-02
944,35	-2,8712E-03
944,65	-2,0742E-02
944,95	3,6332E-03
945,25	-9,5433E-03
945,55	-1,4089E-02
945,84	5,1486E-03
946,14	6,7533E-03
946,44	1,6929E-02
946,74	-3,0238E-03
947,03	-7,7975E-03
947,33	2,6842E-02
947,63	2,4733E-02
947,93	1,2402E-02
948,23	-1,5792E-02
948,52	1,0934E-02
948,82	7,1306E-03
949,12	2,2140E-02
949,41	-1,0400E-02
949,71	2,2805E-02
950,01	9,8183E-03
950,31	-1,6662E-03
950,60	-3,1385E-02
950,90	3,3241E-02
951,20	1,0831E-02
951,49	1,6943E-02
951,79	2,1122E-02
952,09	-4,3394E-03
952,38	-1,4873E-02
952,68	-8,7337E-04
952,98	-1,7928E-03
953,27	2,2945E-02
953,57	1,9297E-02
953,87	1,0744E-02
954,16	0,0000E00
954,46	5,3467E-03
954,76	5,4606E-03
955,05	2,0570E-02
955,35	-9,2652E-03
955,64	9,3332E-04
955,94	-1,0507E-02
956,24	-1,7140E-02
956,53	1,4268E-02
956,83	-1,8959E-03
957,12	1,3406E-02
957,42	-2,0406E-02
957,72	-8,9414E-03
958,01	-9,9631E-04
958,31	7,9395E-03
958,60	1,4036E-02
958,90	-2,2737E-02
959,19	1,7952E-02
959,49	-6,1550E-03
959,78	3,1308E-02
960,08	0,0000E00
960,37	-4,1549E-02
960,67	1,7715E-02
960,96	-3,2366E-03
961,26	-4,6702E-02
961,55	-1,1676E-02
961,85	-2,1474E-02
962,14	-1,3329E-02
962,44	2,0184E-02
962,73	1,4469E-02
963,03	3,5317E-02
963,32	-1,6650E-02
963,62	-3,4556E-02
963,91	6,8513E-03
964,21	-2,1771E-02
964,50	3,5192E-03
964,80	1,9998E-02
965,09	1,6323E-02
965,38	1,0697E-02
965,68	-1,2989E-02
965,97	-1,8433E-02
966,27	-1,2136E-03
966,56	-4,2802E-02
966,85	-3,7303E-03
967,15	-1,5931E-02
967,44	2,4222E-03
967,74	-3,0369E-02
968,03	-4,1112E-02
968,32	-2,5732E-03
968,62	-5,0005E-02
968,91	1,8392E-02
969,20	1,0238E-02
969,50	1,5662E-02
969,79	-2,6399E-03
970,08	1,6085E-02
970,38	0,0000E00
970,67	-1,3596E-02
970,96	1,3694E-02
971,26	2,4705E-02
971,55	1,6367E-02
971,84	2,7886E-02
972,13	4,4261E-02
972,43	-7,0657E-03
972,72	-5,6994E-02
973,01	-3,9585E-02
973,31	-1,0155E-02
973,60	-1,5047E-03
973,89	3,0556E-02
974,18	-1,1770E-02
974,48	3,7226E-02
974,77	9,0357E-03
975,06	3,0769E-02
975,35	-4,2159E-02
975,64	3,2661E-02
975,94	0,0000E00
976,23	-1,5452E-02
976,52	6,2389E-03
976,81	1,6431E-02
977,10	-1,6144E-03
977,40	0,0000E00
977,69	9,8344E-03
977,98	-2,6930E-02
978,27	1,6587E-03
978,56	2,1941E-02
978,86	-2,0812E-02
979,15	1,1912E-02
979,44	6,9816E-03
979,73	6,6606E-02
980,02	-3,0361E-02
980,31	-7,7615E-02
980,60	-7,2245E-03
980,89	4,7911E-02
981,19	-4,3094E-02
981,48	-2,7728E-02
981,77	-3,7726E-02
982,06	2,8111E-02
982,35	-4,8049E-02
982,64	-1,3309E-02
982,93	-1,1820E-02
983,22	4,4201E-02
983,51	1,1544E-02
983,80	3,8024E-02
984,09	-2,7183E-02
984,38	2,3674E-02
984,67	2,2459E-02
984,96	-1,2222E-02
985,25	-5,0992E-02
985,55	2,9154E-02
985,84	1,0676E-02
986,13	1,7198E-02
986,42	-3,0493E-02
986,71	4,0844E-02
987,00	1,7758E-02
987,29	4,3477E-02
987,58	-5,6064E-02
987,86	2,7032E-02
988,15	4,1487E-02
988,44	-8,6418E-02
988,73	-9,2488E-03
989,02	2,3029E-03
989,31	-1,3002E-01
989,60	-6,3716E-02
989,89	-5,5114E-02
990,18	1,9915E-02
990,47	-2,1455E-02
990,76	-2,9593E-02
991,05	2,5263E-03
991,34	8,5575E-02
991,63	-1,0186E-01
991,92	3,2272E-02
992,20	3,5427E-02
992,49	6,9281E-02
992,78	8,9708E-02
993,07	5,1431E-02
993,36	9,0425E-02
993,65	1,0488E-01
993,94	-3,0013E-02
994,22	7,1259E-02
994,51	-5,2803E-02
994,80	1,1194E-02
995,09	-6,2949E-02
995,38	-3,9505E-02
995,67	-5,6696E-02
995,95	-4,3849E-02
996,24	6,4756E-02
996,53	-5,5015E-02
996,82	9,6556E-03
997,11	-5,1078E-02
997,39	-6,9273E-02
997,68	1,2850E-02
997,97	-3,4151E-02
998,26	-9,6223E-03
998,54	9,7290E-02
998,83	9,2731E-02
999,12	3,8074E-02
999,41	-6,2765E-03
999,69	-3,8634E-02
999,98	-1,6388E-01
1000,27	-9,3112E-02
1000,56	6,3102E-02
1000,84	-5,9703E-02
1001,13	-1,9045E-01
1001,42	4,9283E-02
1001,70	-3,6856E-03
1001,99	2,1723E-02
1002,28	1,2949E-01
1002,56	-5,5320E-02
1002,85	2,2394E-02
1003,14	-1,3444E-01
1003,42	-1,0084E-01
1003,71	-1,8539E-02
1004,00	1,2199E-01
1004,28	3,9968E-03
1004,57	6,2253E-02
1004,86	0,0000E00
1005,14	8,7011E-02
1005,43	-4,0829E-02
1005,72	0,0000E00
1006,00	-2,9174E-02
1006,29	2,2572E-02
1006,57	-1,6776E-01
1006,86	8,0527E-02
1007,15	1,3179E-01
1007,43	6,3820E-02
1007,72	8,1279E-02
1008,00	-5,8954E-02
1008,29	-2,0625E-01
1008,57	1,6684E-01
1008,86	-8,0761E-02
1009,14	-1,1376E-01
1009,43	-1,2621E-01
1009,71	-8,7134E-02
1010,00	-2,6401E-01
1010,29	-2,8211E-02
1010,57	-1,9014E-02
1010,86	-1,7374E-01
1011,14	-6,3678E-02
1011,43	-5,7646E-02
1011,71	3,7077E-02
1011,99	-1,3985E-01
1012,28	-1,8080E-01
1012,56	2,3942E-01
1012,85	1,6376E-02
1013,13	7,6232E-02
1013,42	1,6247E-01
1013,70	1,6927E-01
1013,99	1,2018E-01
1014,27	1,1011E-01
1014,56	2,0536E-01
1014,84	6,0495E-02
1015,12	-1,1829E-01
1015,41	1,4914E-01
1015,69	2,4970E-02
1015,98	8,5549E-02
1016,26	-1,5204E-01
1016,54	1,5342E-01
1016,83	-7,7028E-02
1017,11	8,8101E-02
1017,39	2,7839E-02
1017,68	9,0395E-02
1017,96	-1,8427E-01
1018,25	-1,1963E-01
1018,53	-2,0921E-01
1018,81	0,0000E00
1019,10	1,3428E-02
1019,38	-2,6038E-01
1019,66	-2,5564E-01
1019,94	-7,7720E-02
1020,23	-7,0880E-02
1020,51	-8,2261E-02
1020,79	1,7327E-01
1021,08	-2,3667E-01
1021,36	5,9433E-02
1021,64	-8,3774E-02
1021,93	7,8119E-02
1022,21	-4,6199E-01
1022,49	-4,6199E-01
>>>>>End Processed Spectral Data<<<<<
