SpectraSuite Data File
++++++++++++++++++++++++++++++++++++
Date: Tue Oct 21 16:20:0 EET 2025
User: mkilpela
Dark Spectrum Present: Yes
Reference Spectrum Present: No
Number of Sampled Component Spectra: 1
Spectrometers: JAZA2845
Integration Time (usec): 1252 (JAZA2845)
Spectra Averaged: 1 (JAZA2845)
Boxcar Smoothing: 0 (JAZA2845)
Correct for Electrical Dark: No (JAZA2845)
Strobe/Lamp Enabled: No (JAZA2845)
Correct for Detector Non-linearity: No (JAZA2845)
Correct for Stray Light: No (JAZA2845)
Number of Pixels in Processed Spectrum: 2048
>>>>>Begin Processed Spectral Data<<<<<
340,21	0,0000E00
340,58	0,0000E00
340,96	0,0000E00
341,33	0,0000E00
341,70	0,0000E00
342,07	-0,0000E00
342,45	-0,0000E00
342,82	-0,0000E00
343,19	-0,0000E00
343,57	-0,0000E00
343,94	0,0000E00
344,31	-0,0000E00
344,68	0,0000E00
345,06	-0,0000E00
345,43	-0,0000E00
345,80	0,0000E00
346,18	0,0000E00
346,55	0,0000E00
346,92	0,0000E00
347,29	-0,0000E00
347,67	-0,0000E00
348,04	0,0000E00
348,41	0,0000E00
348,78	-0,0000E00
349,16	-0,0000E00
349,53	-0,0000E00
349,90	-0,0000E00
350,27	4,9591E00
350,64	-6,7629E-01
351,02	-1,3046E00
351,39	6,6801E00
351,76	3,9562E00
352,13	-1,8109E01
352,51	3,7965E01
352,88	-9,0905E00
353,25	-8,2303E01
353,62	-1,1182E01
353,99	0,0000E00
354,37	-1,2627E00
354,74	5,4409E00
355,11	-1,6221E00
355,48	6,1680E00
355,85	-2,1579E00
356,23	1,4811E00
356,60	-7,2679E00
356,97	0,0000E00
357,34	7,5748E-01
357,71	1,2888E02
358,08	1,4274E01
358,46	-5,2763E00
358,83	-6,6010E00
359,20	2,5394E00
359,57	-3,5987E00
359,94	-1,1058E02
360,31	-1,3899E01
360,69	7,5324E00
361,06	-7,0982E00
361,43	-2,1663E-01
361,80	-6,1378E00
362,17	1,4971E01
362,54	-1,3464E00
362,91	8,9902E00
363,29	7,1158E-01
363,66	1,0508E01
364,03	4,1556E00
364,40	-5,4299E00
364,77	9,6367E00
365,14	8,5080E00
365,51	-1,9770E00
365,88	2,6099E-01
366,26	-9,4997E-01
366,63	7,4181E00
367,00	5,6288E00
367,37	-1,4314E01
367,74	-2,9448E00
368,11	-5,9428E00
368,48	8,0443E-01
368,85	7,7603E00
369,22	1,7253E01
369,59	1,3076E00
369,97	1,1744E01
370,34	4,2963E00
370,71	5,5720E00
371,08	3,0278E-01
371,45	1,1647E01
371,82	7,5844E00
372,19	-2,9061E00
372,56	-1,7463E00
372,93	-2,8664E00
373,30	4,5575E00
373,67	-6,3926E00
374,04	-8,0716E00
374,41	-3,1928E00
374,78	2,6315E00
375,15	2,5026E00
375,52	-1,0052E01
375,89	-3,4524E00
376,26	-3,7866E00
376,63	1,1584E00
377,00	8,7570E00
377,38	-2,8599E00
377,75	2,1587E00
378,12	-5,3733E00
378,49	4,4523E00
378,86	1,8240E00
379,23	1,1609E01
379,60	-3,6762E00
379,97	-6,8978E-01
380,34	-5,8144E00
380,71	3,5591E00
381,08	-2,4601E00
381,45	1,2762E00
381,82	-1,4709E00
382,19	-1,4458E00
382,55	1,8881E00
382,92	3,5358E00
383,29	-4,3083E00
383,66	1,8024E00
384,03	3,8977E00
384,40	7,8131E00
384,77	-4,1515E00
385,14	9,2084E00
385,51	3,2143E00
385,88	-5,3382E00
386,25	3,2038E00
386,62	6,1359E00
386,99	3,3008E00
387,36	3,3336E00
387,73	3,6956E00
388,10	-1,2820E00
388,47	2,6094E00
388,84	6,5796E00
389,21	4,2636E00
389,58	-1,4221E00
389,94	1,3085E00
390,31	-1,7538E00
390,68	-5,0251E00
391,05	1,8745E00
391,42	-9,8580E-01
391,79	1,9139E00
392,16	4,3749E00
392,53	2,6009E00
392,90	-1,8008E00
393,27	3,1894E00
393,63	8,8971E00
394,00	3,8174E00
394,37	8,0009E00
394,74	2,8654E00
395,11	9,0685E00
395,48	5,2197E00
395,85	4,3570E00
396,22	6,9155E00
396,58	8,5550E00
396,95	1,1379E01
397,32	4,4235E00
397,69	3,8518E00
398,06	1,1051E01
398,43	2,2154E00
398,80	4,1733E00
399,16	7,1998E00
399,53	7,0016E00
399,90	1,0314E00
400,27	-2,5811E00
400,64	7,0653E00
401,01	4,1115E00
401,37	5,6263E00
401,74	-3,0959E00
402,11	4,7554E00
402,48	-5,3337E-01
402,85	3,3833E00
403,22	-1,7905E00
403,58	8,5271E00
403,95	-3,1047E00
404,32	6,6236E00
404,69	2,0079E00
405,06	4,9866E00
405,42	4,1992E00
405,79	1,1681E01
406,16	-1,3811E00
406,53	2,3492E00
406,89	-1,1774E00
407,26	3,1980E00
407,63	2,4385E00
408,00	4,2132E00
408,37	3,9110E00
408,73	1,1015E00
409,10	3,9184E00
409,47	7,5634E00
409,84	7,4518E00
410,20	7,6250E00
410,57	6,4218E00
410,94	1,1608E00
411,31	6,2578E00
411,67	4,1885E00
412,04	5,6813E00
412,41	4,7867E00
412,77	-2,1400E00
413,14	4,7033E00
413,51	-7,5698E-01
413,88	4,1671E00
414,24	5,4680E00
414,61	6,4030E00
414,98	3,1626E00
415,34	5,4091E00
415,71	7,0480E00
416,08	6,4144E00
416,45	7,0900E00
416,81	7,5116E00
417,18	5,1504E00
417,55	5,5495E00
417,91	4,1814E00
418,28	8,3152E00
418,65	6,6863E00
419,01	7,6545E00
419,38	1,1735E01
419,75	1,4589E01
420,11	1,0524E01
420,48	2,2956E01
420,85	2,4684E01
421,21	3,4820E01
421,58	4,0565E01
421,95	4,3287E01
422,31	5,4891E01
422,68	6,7269E01
423,05	8,1085E01
423,41	9,3716E01
423,78	9,8783E01
424,15	1,1583E02
424,51	1,3250E02
424,88	1,4158E02
425,24	1,5246E02
425,61	1,6866E02
425,98	1,9301E02
426,34	2,1181E02
426,71	2,2246E02
427,07	2,4044E02
427,44	2,5858E02
427,81	2,7227E02
428,17	2,9383E02
428,54	2,9503E02
428,90	3,3808E02
429,27	3,4181E02
429,64	3,5905E02
430,00	4,0104E02
430,37	4,3842E02
430,73	4,6137E02
431,10	4,5378E02
431,46	5,0105E02
431,83	5,3279E02
432,20	5,8556E02
432,56	6,2823E02
432,93	6,5479E02
433,29	6,6893E02
433,66	7,3077E02
434,02	7,9190E02
434,39	8,3741E02
434,75	9,0355E02
435,12	9,4669E02
435,49	1,0852E03
435,85	1,1034E03
436,22	1,1519E03
436,58	1,2078E03
436,95	1,2953E03
437,31	1,3580E03
437,68	1,4441E03
438,04	1,5609E03
438,41	1,5791E03
438,77	1,7270E03
439,14	1,7333E03
439,50	1,7037E03
439,87	1,8649E03
440,23	1,9580E03
440,60	2,0209E03
440,96	2,0738E03
441,33	2,1723E03
441,69	2,1937E03
442,06	2,2840E03
442,42	2,3370E03
442,78	2,3909E03
443,15	2,3979E03
443,51	2,4278E03
443,88	2,4647E03
444,24	2,4958E03
444,61	2,5078E03
444,97	2,5165E03
445,34	2,6434E03
445,70	2,5499E03
446,07	2,6330E03
446,43	2,5458E03
446,79	2,5714E03
447,16	2,5817E03
447,52	2,5848E03
447,89	2,4995E03
448,25	2,5379E03
448,62	2,5742E03
448,98	2,4395E03
449,34	2,4474E03
449,71	2,5169E03
450,07	2,3454E03
450,44	2,4048E03
450,80	2,4075E03
451,16	2,3431E03
451,53	2,2969E03
451,89	2,2584E03
452,25	2,2390E03
452,62	2,3346E03
452,98	2,1416E03
453,35	2,1321E03
453,71	2,0488E03
454,07	2,0423E03
454,44	2,0062E03
454,80	1,9514E03
455,16	1,8893E03
455,53	1,8206E03
455,89	1,7030E03
456,25	1,6736E03
456,62	1,5800E03
456,98	1,5716E03
457,34	1,5242E03
457,71	1,4882E03
458,07	1,3679E03
458,43	1,3542E03
458,80	1,2871E03
459,16	1,2340E03
459,52	1,2398E03
459,89	1,1351E03
460,25	1,0565E03
460,61	1,0505E03
460,98	9,9427E02
461,34	9,4320E02
461,70	8,8570E02
462,07	8,5825E02
462,43	8,1752E02
462,79	7,9073E02
463,15	7,3977E02
463,52	7,2774E02
463,88	6,9900E02
464,24	6,4363E02
464,61	6,0587E02
464,97	6,0553E02
465,33	5,7134E02
465,69	5,3291E02
466,06	5,0347E02
466,42	5,0410E02
466,78	4,4498E02
467,14	4,1926E02
467,51	3,8459E02
467,87	3,6920E02
468,23	3,3993E02
468,59	3,1993E02
468,95	2,8825E02
469,32	2,6132E02
469,68	2,4479E02
470,04	2,1723E02
470,40	2,0309E02
470,77	1,7917E02
471,13	1,7070E02
471,49	1,4734E02
471,85	1,2912E02
472,21	1,1671E02
472,58	9,5464E01
472,94	8,3393E01
473,30	7,1877E01
473,66	5,7453E01
474,02	4,1719E01
474,39	3,4943E01
474,75	2,3509E01
475,11	1,5233E01
475,47	1,3257E01
475,83	8,8780E00
476,19	7,3748E00
476,56	4,5205E00
476,92	4,3454E00
477,28	1,9182E00
477,64	3,1295E00
478,00	3,1058E00
478,36	4,8608E00
478,72	2,9432E00
479,09	2,9737E00
479,45	2,2009E00
479,81	1,6684E00
480,17	-6,4083E-01
480,53	3,7250E00
480,89	-1,2680E00
481,25	8,1866E-01
481,61	5,2310E-01
481,97	1,7366E00
482,34	5,0933E-01
482,70	1,0429E00
483,06	1,5785E00
483,42	2,3196E00
483,78	6,8174E-01
484,14	1,9005E00
484,50	1,7555E00
484,86	2,0474E00
485,22	2,1489E00
485,58	2,3857E00
485,94	1,3953E00
486,31	2,1372E00
486,67	9,3098E-01
487,03	7,9137E-01
487,39	2,2154E-01
487,75	1,5578E00
488,11	1,6205E00
488,47	6,5017E-01
488,83	-5,5892E-01
489,19	-5,1284E-01
489,55	6,9431E-01
489,91	-7,9958E-01
490,27	1,2693E-01
490,63	4,5537E-01
490,99	8,7438E-01
491,35	1,1108E00
491,71	2,4608E-01
492,07	1,6030E-01
492,43	6,8394E-01
492,79	3,1984E-01
493,15	2,1864E00
493,51	9,7085E-01
493,87	6,2902E-01
494,23	1,4713E00
494,59	1,3424E00
494,95	1,0208E00
495,31	3,1253E-01
495,67	-3,5206E-01
496,03	5,3652E-01
496,39	4,9835E-01
496,75	1,3571E00
497,11	4,5509E-01
497,47	6,7589E-01
497,83	7,5517E-01
498,19	-2,2114E-01
498,55	1,4679E00
498,91	9,3643E-01
499,27	6,6830E-01
499,63	9,7855E-01
499,98	7,6262E-01
500,34	1,5915E00
500,70	5,7756E-01
501,06	1,0843E00
501,42	3,2501E-01
501,78	-7,4857E-01
502,14	1,7789E-01
502,50	-1,1311E00
502,86	-1,1497E00
503,22	3,8436E-01
503,58	1,9681E00
503,94	6,9247E-01
504,29	9,9899E-01
504,65	9,3668E-01
505,01	1,0697E00
505,37	-3,4869E-02
505,73	6,8598E-01
506,09	7,9130E-01
506,45	1,0061E00
506,81	2,4080E-01
507,16	4,4328E-01
507,52	-4,7457E-01
507,88	-7,8901E-01
508,24	6,0731E-01
508,60	9,7681E-01
508,96	-6,7895E-01
509,32	-8,4727E-01
509,67	1,6208E00
510,03	7,0904E-01
510,39	6,4069E-01
510,75	3,7301E-01
511,11	6,7693E-01
511,47	-4,7040E-01
511,82	-6,3967E-01
512,18	1,4101E00
512,54	0,0000E00
512,90	1,8218E00
513,26	6,6955E-01
513,61	-5,0075E-01
513,97	2,0240E-01
514,33	1,0056E-01
514,69	2,1042E00
515,05	2,6959E-01
515,40	6,7687E-02
515,76	-2,3134E-01
516,12	-1,0006E00
516,48	-3,3557E-02
516,83	7,4531E-01
517,19	1,0698E00
517,55	-1,6950E-01
517,91	1,2736E00
518,26	-4,7036E-01
518,62	-6,0065E-01
518,98	1,1441E00
519,34	1,2463E00
519,69	-3,3350E-01
520,05	1,1041E00
520,41	9,9912E-02
520,77	-3,9913E-01
521,12	7,7189E-01
521,48	-1,6898E-01
521,84	1,0050E-01
522,19	1,0100E-01
522,55	7,6974E-01
522,91	-7,0001E-01
523,27	4,7084E-01
523,62	3,6867E-01
523,98	-8,4245E-01
524,34	2,9640E-01
524,69	5,0975E-01
525,05	-1,1268E00
525,41	-3,3675E-02
525,76	-3,3544E-02
526,12	-3,9954E-01
526,48	-8,4883E-01
526,83	3,3374E-01
527,19	-9,8771E-02
527,55	6,3458E-01
527,90	2,6370E-01
528,26	-3,0021E-01
528,62	0,0000E00
528,97	6,5917E-01
529,33	-1,9571E-01
529,69	1,0197E00
530,04	5,9506E-01
530,40	8,5163E-01
530,76	5,9177E-01
531,11	1,3122E00
531,47	4,5621E-01
531,82	1,1809E00
532,18	6,6023E-01
532,54	2,9481E-01
532,89	-3,3008E-02
533,25	4,5779E-01
533,60	-2,6113E-01
533,96	-7,5119E-01
534,32	-7,8187E-01
534,67	4,2164E-01
535,03	7,2070E-01
535,38	-2,3447E-01
535,74	-6,0682E-01
536,10	0,0000E00
536,45	4,8539E-01
536,81	-6,4627E-02
537,16	-1,2947E-01
537,52	1,6043E-01
537,87	-3,1920E-01
538,23	6,3598E-02
538,58	-9,9241E-01
538,94	9,5293E-02
539,30	1,5782E-01
539,65	-4,4054E-01
540,01	-1,5748E-01
540,36	1,5843E-01
540,72	6,9257E-01
541,07	7,1488E-01
541,43	-3,7487E-01
541,78	5,3182E-01
542,14	5,5533E-01
542,49	5,8951E-01
542,85	3,4150E-01
543,20	-3,1122E-02
543,56	4,7050E-01
543,91	7,3789E-01
544,27	-3,0651E-02
544,62	1,0662E00
544,98	6,4517E-01
545,33	4,5778E-01
545,69	3,6774E-01
546,04	3,0547E-01
546,40	1,5287E-01
546,75	1,8384E-01
547,10	8,5340E-01
547,46	4,8928E-01
547,81	5,7479E-01
548,17	7,6424E-01
548,52	-6,3442E-01
548,88	-9,1092E-02
549,23	9,0692E-02
549,59	6,0344E-01
549,94	1,2110E-01
550,29	4,2099E-01
550,65	6,9835E-01
551,00	-3,3243E-01
551,36	2,0934E-01
551,71	1,1916E-01
552,06	-1,4944E-01
552,42	-3,0114E-02
552,77	6,6005E-01
553,13	-3,8766E-01
553,48	1,6447E00
553,83	-9,0356E-02
554,19	2,3942E-01
554,54	2,0943E-01
554,90	9,8483E-01
555,25	7,7901E-01
555,60	5,1202E-01
555,96	-2,7006E-01
556,31	3,6118E-01
556,66	8,9773E-01
557,02	7,1451E-01
557,37	9,2887E-01
557,72	1,1496E00
558,08	1,4517E00
558,43	-6,9101E-01
558,79	-9,0915E-02
559,14	-1,0669E00
559,49	-9,7391E-01
559,85	-4,5772E-01
560,20	-5,1617E-01
560,55	-4,2316E-01
560,90	3,9763E-01
561,26	2,1294E-01
561,61	7,0275E-01
561,96	-6,1342E-02
562,32	-9,2467E-01
562,67	-1,2410E-01
563,02	7,4728E-01
563,38	3,0912E-02
563,73	6,7957E-01
564,08	-4,3185E-01
564,43	3,7119E-01
564,79	3,7416E-01
565,14	9,3200E-02
565,49	-1,2379E-01
565,84	-3,1222E-02
566,20	8,7076E-01
566,55	-4,4223E-01
566,90	-3,1369E-02
567,25	1,2580E-01
567,61	-5,0652E-01
567,96	1,0754E00
568,31	8,2556E-01
568,66	1,0825E00
569,02	5,1321E-01
569,37	3,2130E-01
569,72	8,3285E-01
570,07	1,2076E00
570,42	2,9054E-01
570,78	-6,4792E-02
571,13	-8,6678E-01
571,48	1,2012E00
571,83	-2,9167E-01
572,18	1,9364E-01
572,54	-5,5631E-01
572,89	2,6438E-01
573,24	-4,1840E-01
573,59	-4,2403E-01
573,94	8,0843E-01
574,30	-4,5020E-01
574,65	4,5084E-01
575,00	6,5142E-01
575,35	-1,6350E-01
575,70	2,2708E-01
576,05	-6,2045E-01
576,40	-2,6411E-01
576,76	2,6184E-01
577,11	1,6215E-01
577,46	3,2553E-01
577,81	2,6297E-01
578,16	6,8973E-01
578,51	3,9215E-01
578,86	-7,5348E-01
579,21	-6,2809E-01
579,57	-3,3046E-01
579,92	-3,2853E-02
580,27	5,2516E-01
580,62	-5,6224E-01
580,97	6,8921E-01
581,32	-2,3012E-01
581,67	6,6064E-01
582,02	1,5871E00
582,37	3,6247E-01
582,72	-3,6396E-01
583,08	7,2744E-01
583,43	3,3133E-01
583,78	4,3310E-01
584,13	6,6643E-02
584,48	-1,2233E00
584,83	9,9775E-02
585,18	8,2482E-01
585,53	-3,9652E-01
585,88	-4,9793E-01
586,23	3,6604E-01
586,58	8,5742E-01
586,93	-2,3155E-01
587,28	7,3751E-01
587,63	8,6240E-01
587,98	-1,3254E-01
588,33	6,5921E-01
588,68	9,9810E-02
589,03	-1,3232E-01
589,38	-2,3308E-01
589,73	3,2869E-01
590,08	8,3343E-01
590,43	2,6772E-01
590,78	-1,3159E-01
591,13	-3,3145E-02
591,48	3,6633E-01
591,83	-2,6602E-01
592,18	6,6955E-01
592,53	-3,3308E-02
592,88	-1,1015E00
593,23	-2,9747E-01
593,58	5,9746E-01
593,93	7,3349E-01
594,28	3,9894E-01
594,63	6,7686E-01
594,98	1,6689E-01
595,33	-3,3435E-01
595,68	1,0768E00
596,02	5,6978E-01
596,37	-5,0816E-01
596,72	-4,7125E-01
597,07	1,2688E00
597,42	-5,0517E-01
597,77	9,3728E-01
598,12	3,6911E-01
598,47	2,0418E-01
598,82	2,0326E-01
599,17	8,3792E-01
599,52	-8,8249E-01
599,86	3,6988E-01
600,21	1,6915E-01
600,56	9,8415E-01
600,91	7,5153E-01
601,26	1,3592E-01
601,61	1,3755E-01
601,96	0,0000E00
602,30	7,7896E-01
602,65	1,4037E00
603,00	1,0324E-01
603,35	-1,1753E00
603,70	1,6531E00
604,05	4,8594E-01
604,40	2,4329E-01
604,74	4,8800E-01
605,09	-4,1772E-01
605,44	-6,6411E-01
605,79	-4,9070E-01
606,14	2,1042E-01
606,48	-2,8057E-01
606,83	1,3691E00
607,18	1,1353E00
607,53	3,1948E-01
607,88	6,3757E-01
608,22	-2,8455E-01
608,57	6,0713E-01
608,92	-7,1260E-02
609,27	2,8870E-01
609,62	-7,1568E-01
609,96	1,3328E00
610,31	-2,1704E-01
610,66	4,3645E-01
611,01	6,1635E-01
611,35	-6,1421E-01
611,70	2,9260E-01
612,05	3,3008E-01
612,40	-1,2176E00
612,74	4,3892E-01
613,09	7,3884E-02
613,44	9,5687E-01
613,79	1,1120E-01
614,13	1,1209E00
614,48	2,2386E-01
614,83	5,2461E-01
615,17	-7,8585E-01
615,52	-7,5601E-02
615,87	-7,5503E-02
616,22	7,1386E-01
616,56	8,6973E-01
616,91	7,5869E-02
617,26	8,7580E-01
617,60	1,9011E-01
617,95	-6,1025E-01
618,30	1,3390E00
618,64	-3,0641E-01
618,99	-2,6915E-01
619,34	-6,9821E-01
619,68	0,0000E00
620,03	-8,1352E-01
620,38	2,3167E-01
620,72	1,1581E00
621,07	-1,0134E00
621,42	-3,9099E-02
621,76	-6,6187E-01
622,11	1,3962E00
622,45	-2,3468E-01
622,80	-3,9141E-02
623,15	-3,1660E-01
623,49	-5,9371E-01
623,84	5,5551E-01
624,18	1,6674E00
624,53	-3,9818E-01
624,88	3,5382E-01
625,22	-1,5935E-01
625,57	2,3979E-01
625,91	2,3798E-01
626,26	3,6039E-01
626,61	-1,4862E00
626,95	4,0520E-02
627,30	-1,0043E00
627,64	2,8316E-01
627,99	1,6302E-01
628,33	-4,4352E-01
628,68	4,0482E-01
629,03	6,5118E-01
629,37	-8,1482E-02
629,72	4,8808E-01
630,06	4,8904E-01
630,41	1,4285E00
630,75	4,1061E-02
631,10	-4,0789E-01
631,44	7,8384E-01
631,79	2,4733E-01
632,13	5,8027E-01
632,48	3,3185E-01
632,82	6,6433E-01
633,17	9,2419E-01
633,51	8,7464E-01
633,86	4,6014E-01
634,20	7,1107E-01
634,55	1,0399E00
634,89	7,9987E-01
635,24	-1,2505E-01
635,58	5,8784E-01
635,93	-6,3039E-01
636,27	1,2557E-01
636,62	-3,3633E-01
636,96	1,4295E00
637,30	-1,6974E-01
637,65	5,9880E-01
637,99	3,3881E-01
638,34	-7,6332E-01
638,68	8,0789E-01
639,03	4,6579E-01
639,37	7,7102E-01
639,71	1,0341E00
640,06	-2,5603E-01
640,40	-3,0138E-01
640,75	3,4393E-01
641,09	4,7436E-01
641,44	6,8848E-01
641,78	-8,6372E-02
642,12	4,3219E-01
642,47	2,1716E-01
642,81	-8,5967E-02
643,15	1,6091E00
643,50	-4,7738E-01
643,84	-3,9155E-01
644,19	-3,0518E-01
644,53	-1,2707E00
644,87	-8,7363E-02
645,22	1,3175E00
645,56	3,0929E-01
645,90	0,0000E00
646,25	4,8517E-01
646,59	1,1451E00
646,93	-5,3053E-01
647,28	-4,8684E-01
647,62	0,0000E00
647,96	-1,3287E00
648,31	-1,0273E00
648,65	2,0902E00
648,99	-6,7053E-01
649,34	2,2375E-01
649,68	7,1609E-01
650,02	8,5035E-01
650,36	-4,0572E-01
650,71	4,4777E-02
651,05	1,1750E00
651,39	4,9738E-01
651,74	6,3474E-01
652,08	1,3534E00
652,42	-2,7292E-01
652,76	4,1354E-01
653,11	-5,4807E-01
653,45	4,5757E-02
653,79	-6,9688E-01
654,13	1,3793E-01
654,48	5,5406E-01
654,82	1,1971E00
655,16	7,9105E-01
655,50	5,1586E-01
655,85	-7,0114E-01
656,19	-2,7894E-01
656,53	1,4078E-01
656,87	-3,3000E-01
657,21	3,7212E-01
657,56	1,8855E-01
657,90	8,4679E-01
658,24	7,9715E-01
658,58	5,6363E-01
658,92	-1,8876E-01
659,27	1,3226E00
659,61	-2,3830E-01
659,95	1,2291E00
660,29	1,4698E00
660,63	-3,8359E-01
660,97	-9,5083E-02
661,32	4,3354E-01
661,66	-2,4071E00
662,00	-8,1977E-01
662,34	-4,3759E-01
662,68	-4,3602E-01
663,02	8,2730E-01
663,37	-4,3822E-01
663,71	1,0764E00
664,05	3,9075E-01
664,39	-5,4158E-01
664,73	9,8514E-02
665,07	3,4383E-01
665,41	-7,3869E-01
665,75	5,4605E-01
666,09	-4,9809E-02
666,44	-3,4868E-01
666,78	6,4778E-01
667,12	6,0422E-01
667,46	-5,5066E-01
667,80	1,2596E00
668,14	-5,5645E-01
668,48	-4,5542E-01
668,82	-1,5240E00
669,16	-1,0226E00
669,50	-1,5336E-01
669,84	9,1188E-01
670,18	6,6948E-01
670,52	-1,6427E00
670,86	-1,1815E00
671,20	6,7018E-01
671,54	-1,0315E-01
671,88	-1,0915E00
672,22	3,1269E-01
672,57	5,7674E-01
672,91	-2,7119E00
673,25	1,5358E00
673,59	1,7834E00
673,93	5,3173E-02
674,27	1,1155E00
674,61	5,3343E-01
674,95	-5,3259E-02
675,28	2,1509E-01
675,62	9,1335E-01
675,96	1,1231E00
676,30	1,7829E00
676,64	-3,2274E-01
676,98	1,6729E00
677,32	-5,4231E-02
677,66	1,6895E00
678,00	-7,5750E-01
678,34	-1,4114E00
678,68	-7,1425E-01
679,02	6,0748E-01
679,36	0,0000E00
679,70	9,9421E-01
680,04	-1,7269E00
680,38	-3,8691E-01
680,72	2,1324E00
681,06	-1,4022E00
681,39	2,7842E-01
681,73	-2,8030E-01
682,07	1,2437E00
682,41	2,1653E00
682,75	1,5480E00
683,09	1,5855E00
683,43	8,0228E-01
683,77	2,1107E00
684,11	2,1242E00
684,44	2,6453E00
684,78	-9,1710E-01
685,12	1,7297E-01
685,46	-6,9735E-01
685,80	-1,1090E00
686,14	3,5039E-01
686,48	-5,8308E-01
686,81	8,1967E-01
687,15	5,8441E-02
687,49	-8,2761E-01
687,83	-1,4751E00
688,17	-1,3015E00
688,51	3,5471E-01
688,84	-5,3511E-01
689,18	2,3761E-01
689,52	-1,7938E-01
689,86	1,0752E00
690,20	6,0151E-02
690,53	6,6233E-01
690,87	-1,6234E00
691,21	-3,0277E-01
691,55	-6,0266E-01
691,88	-4,2879E-01
692,22	-1,8213E00
692,56	6,0766E-02
692,90	-1,8114E-01
693,23	7,9733E-01
693,57	6,1111E-02
693,91	4,2812E-01
694,25	8,0556E-01
694,58	1,0511E00
694,92	3,7021E-01
695,26	1,2317E-01
695,60	9,9851E-01
695,93	2,8102E00
696,27	2,0476E00
696,61	-9,9474E-01
696,94	-1,3152E00
697,28	-8,0810E-01
697,62	0,0000E00
697,96	1,8958E-01
698,29	-1,1960E00
698,63	-2,3940E00
698,97	-6,3820E-02
699,30	-2,1453E00
699,64	6,3007E-01
699,98	1,1434E00
700,31	5,7506E-01
700,65	1,1394E00
700,99	-2,6312E00
701,32	-2,5564E-01
701,66	-1,9190E-01
702,00	2,4344E00
702,33	2,5650E00
702,67	4,5401E-01
703,00	8,4541E-01
703,34	1,8711E00
703,68	-3,8835E-01
704,01	-1,0463E00
704,35	-2,0901E00
704,69	6,4910E-02
705,02	7,1438E-01
705,36	-7,1838E-01
705,69	-1,5039E00
706,03	-6,5178E-02
706,36	1,9522E-01
706,70	1,3092E-01
707,04	1,9608E-01
707,37	-1,2486E00
707,71	-7,9197E-01
708,04	9,2014E-01
708,38	-2,6515E-01
708,71	5,9822E-01
709,05	3,9881E-01
709,39	6,6623E-02
709,72	1,0643E00
710,06	-1,9987E-01
710,39	-1,0011E00
710,73	-7,9639E-01
711,06	-1,3360E00
711,40	1,4583E00
711,73	7,3560E-01
712,07	-1,6759E00
712,40	-2,6989E-01
712,74	-2,8760E00
713,07	-2,0043E-01
713,41	-1,1434E00
713,74	-6,7762E-02
714,08	1,3571E-01
714,41	-4,0561E-01
714,75	-4,7656E-01
715,08	3,3927E-01
715,42	-1,1546E00
715,75	2,0586E00
716,08	6,7769E-02
716,42	-9,5705E-01
716,75	1,3765E00
717,09	-3,4338E-01
717,42	-1,3739E00
717,76	-1,3672E-01
718,09	-1,6562E00
718,43	-5,4906E-01
718,76	-1,3031E00
719,09	1,7225E00
719,43	-1,7896E00
719,76	2,7725E-01
720,10	-6,9023E-02
720,43	-1,3802E00
720,76	-3,4741E-01
721,10	4,8370E-01
721,43	2,2274E00
721,76	1,8172E00
722,10	1,0452E00
722,43	2,8069E-01
722,77	-6,2877E-01
723,10	2,9445E00
723,43	1,3973E00
723,77	-1,0530E00
724,10	-9,1274E-01
724,43	2,1139E-01
724,77	6,3407E-01
725,10	3,5359E00
725,43	3,5114E-01
725,77	8,4728E-01
726,10	9,2055E-01
726,43	1,2774E00
726,77	3,5655E-01
727,10	-5,7128E-01
727,43	7,8540E-01
727,77	-1,0697E00
728,10	1,4360E-01
728,43	1,0116E00
728,76	1,1517E00
729,10	-2,2967E00
729,43	1,4372E-01
729,76	-1,3633E00
730,09	-2,9031E-01
730,43	-1,5080E00
730,76	-1,8845E00
731,09	0,0000E00
731,42	0,0000E00
731,76	1,9652E00
732,09	2,5499E00
732,42	1,0203E00
732,75	2,4914E00
733,09	1,5410E00
733,42	3,6729E-01
733,75	0,0000E00
734,08	1,7899E00
734,41	-3,6946E-01
734,75	1,6985E00
735,08	1,3398E00
735,41	-1,0418E00
735,74	-4,4769E-01
736,07	3,0107E00
736,41	2,2529E-01
736,74	5,2661E-01
737,07	-1,8849E00
737,40	1,7398E00
737,73	2,1918E00
738,06	-3,0169E-01
738,40	1,2904E00
738,73	-1,5153E00
739,06	1,0743E00
739,39	3,8442E-01
739,72	-1,3787E00
740,05	1,6747E00
740,38	-1,0033E00
740,72	-9,2813E-01
741,05	2,1654E00
741,38	7,7095E-02
741,71	-3,1072E-01
742,04	-1,7812E00
742,37	2,3280E-01
742,70	-1,2470E00
743,03	7,0281E-01
743,36	1,0995E00
743,69	-2,2765E00
744,02	1,1891E00
744,36	3,3767E00
744,69	0,0000E00
745,02	-1,5857E-01
745,35	5,5635E-01
745,68	-8,7738E-01
746,01	-1,8331E00
746,34	-6,4293E-01
746,67	-1,3725E00
747,00	-1,4509E00
747,33	-7,3105E-01
747,66	-1,8651E00
747,99	-2,9201E00
748,32	1,7123E00
748,65	2,4587E00
748,98	-3,2527E-01
749,31	-2,4589E-01
749,64	2,8855E00
749,97	1,8066E00
750,30	8,2687E-01
750,63	-3,3212E-01
750,96	-1,2472E00
751,29	-1,6640E00
751,62	-2,3497E00
751,95	1,1698E00
752,28	9,2527E-01
752,61	-1,3454E00
752,94	-1,6894E00
753,27	-2,5402E00
753,60	-3,6694E00
753,92	-8,4918E-02
754,25	1,0282E00
754,58	-2,6588E00
754,91	-9,5131E-01
755,24	-2,1470E00
755,57	-6,0195E-01
755,90	-7,8893E-01
756,23	4,6801E00
756,56	9,6024E-01
756,89	-1,3970E00
757,22	1,3132E00
757,54	8,7724E-02
757,87	-1,5837E00
758,20	2,6419E00
758,53	7,9691E-01
758,86	8,8115E-02
759,19	-2,3776E00
759,52	1,7840E-01
759,84	2,3203E00
760,17	3,5704E-01
760,50	2,6138E00
760,83	-1,8013E-01
761,16	-2,7595E-01
761,49	-5,4753E-01
761,81	2,0029E00
762,14	1,2806E00
762,47	9,2036E-02
762,80	-2,0206E00
763,13	2,3005E00
763,45	2,7864E-01
763,78	-3,2494E00
764,11	-4,6369E-01
764,44	1,3871E00
764,77	3,3076E00
765,09	-1,1264E00
765,42	-2,7938E-01
765,75	2,8107E-01
766,08	2,8053E-01
766,40	9,4335E-01
766,73	8,4748E-01
767,06	-6,6333E-01
767,39	8,6614E-01
767,71	-1,8993E-01
768,04	-1,6381E00
768,37	1,9208E-01
768,70	7,6865E-01
769,02	2,4223E00
769,35	4,8289E-01
769,68	-1,1678E00
770,00	-1,0688E00
770,33	5,8066E-01
770,66	1,8516E00
770,99	-2,0767E00
771,31	-8,8782E-01
771,64	7,8833E-01
771,97	2,8011E00
772,29	8,9332E-01
772,62	2,9963E-01
772,95	4,7040E00
773,27	-2,5167E00
773,60	-2,2205E00
773,93	2,0049E00
774,25	1,2074E00
774,58	-2,0322E-01
774,90	1,2163E00
775,23	8,1400E-01
775,56	-1,6374E00
775,88	-1,1261E00
776,21	-2,0490E-01
776,54	-3,9094E00
776,86	7,2266E-01
777,19	1,1337E00
777,51	-2,8077E00
777,84	8,2894E-01
778,16	2,0975E00
778,49	-1,1555E00
778,82	2,6191E00
779,14	4,3232E00
779,47	2,0997E00
779,79	-1,1680E00
780,12	4,2531E-01
780,44	4,5968E00
780,77	9,5706E-01
781,10	1,2851E00
781,42	-3,2238E-01
781,75	1,6301E00
782,07	2,8128E00
782,40	4,3369E-01
782,72	7,6049E-01
783,05	3,1906E00
783,37	-1,6534E00
783,70	7,7014E-01
784,02	-1,3209E00
784,35	-2,5208E00
784,67	-2,6805E00
785,00	-3,1509E00
785,32	4,2770E00
785,65	-4,6074E00
785,97	-5,5847E-01
786,30	-1,1401E-01
786,62	-2,2490E-01
786,94	-5,6922E-01
787,27	-3,4162E-01
787,59	2,6351E00
787,92	5,2754E00
788,24	4,5486E-01
788,57	7,9620E-01
788,89	9,2302E-01
789,22	-1,1399E00
789,54	-5,7079E-01
789,86	-2,0422E00
790,19	3,1956E00
790,51	-2,2649E-01
790,84	1,2667E00
791,16	-2,5170E00
791,48	8,0679E-01
791,81	5,7311E-01
792,13	-4,6085E-01
792,45	0,0000E00
792,78	1,6085E00
793,10	1,9415E00
793,43	-1,4874E00
793,75	3,7513E00
794,07	2,7770E00
794,40	1,3686E00
794,72	-6,7824E-01
795,04	-3,3958E00
795,37	-1,2392E00
795,69	-8,0996E-01
796,01	1,1408E-01
796,34	3,4130E00
796,66	-2,2471E00
796,98	2,8954E00
797,30	1,2291E00
797,63	-6,7297E-01
797,95	-9,9992E-01
798,27	-1,1142E00
798,60	-3,0147E00
798,92	1,2363E00
799,24	-3,4661E00
799,56	-2,0146E00
799,89	2,6919E00
800,21	6,7177E-01
800,53	3,3437E-01
800,85	1,7790E00
801,18	7,8778E-01
801,50	-2,6652E00
801,82	-1,4558E00
802,14	-1,2276E00
802,47	-4,9680E00
802,79	-3,3802E00
803,11	8,8483E-01
803,43	2,2126E-01
803,75	2,4486E00
804,08	-3,3169E-01
804,40	7,8132E-01
804,72	8,9126E-01
805,04	-1,4375E00
805,36	4,8381E00
805,69	-1,1115E-01
806,01	-2,0158E00
806,33	1,1210E-01
806,65	-2,2768E-01
806,97	-1,1226E-01
807,29	-5,5235E00
807,62	0,0000E00
807,94	0,0000E00
808,26	2,4846E00
808,58	-1,1343E-01
808,90	-5,6826E-01
809,22	2,6317E00
809,54	4,5898E-01
809,86	-1,0191E00
810,18	3,6442E00
810,51	-2,2974E-01
810,83	1,1481E00
811,15	5,7937E-01
811,47	-2,9855E00
811,79	-2,3249E-01
812,11	1,4922E00
812,43	1,1484E-01
812,75	1,1657E-01
813,07	1,0454E00
813,39	1,7453E00
813,71	5,8012E-01
814,03	2,6916E00
814,35	1,1641E-01
814,67	-2,6940E00
814,99	-5,1567E00
815,31	-9,4070E-01
815,64	2,7102E00
815,96	1,4132E00
816,28	3,5348E00
816,60	1,4276E00
816,92	7,2046E-01
817,24	9,5080E-01
817,56	-5,9935E-01
817,88	4,7707E-01
818,19	2,7690E00
818,51	2,0556E00
818,83	-1,9213E00
819,15	-2,0462E00
819,47	0,0000E00
819,79	2,9301E00
820,11	1,2153E00
820,43	1,5967E00
820,75	-4,2703E00
821,07	-1,3495E00
821,39	4,9296E-01
821,71	4,9404E-01
822,03	8,6805E-01
822,35	4,9579E-01
822,67	-1,7204E00
822,99	-3,8594E00
823,31	-2,5005E-01
823,62	-5,2460E00
823,94	6,2683E-01
824,26	-8,8135E-01
824,58	3,8056E-01
824,90	1,7616E00
825,22	1,5221E00
825,54	2,5685E00
825,86	-3,8604E-01
826,17	1,7881E00
826,49	7,6942E-01
826,81	-5,1656E-01
827,13	1,0447E00
827,45	3,3549E00
827,77	-1,5494E00
828,08	1,5472E00
828,40	3,9260E00
828,72	-2,8839E00
829,04	-1,3108E-01
829,36	1,5745E00
829,67	-6,8374E00
829,99	-5,4758E00
830,31	-2,0250E00
830,63	-1,8714E00
830,95	-3,6027E00
831,26	-4,2844E00
831,58	-1,3444E-01
831,90	-2,1627E00
832,22	8,1346E-01
832,53	2,3140E00
832,85	1,2212E00
833,17	2,8642E00
833,49	9,5322E-01
833,80	1,2503E00
834,12	-1,6614E00
834,44	-1,9347E00
834,76	-1,6656E00
835,07	2,3971E00
835,39	-2,5198E00
835,71	1,3908E00
836,02	1,2577E00
836,34	2,8236E-01
836,66	2,5441E00
836,97	-8,4565E-01
837,29	-4,0875E00
837,61	-8,4814E-01
837,93	2,2768E00
838,24	-2,7053E00
838,56	-2,8568E-01
838,88	5,7396E-01
839,19	-2,9027E-01
839,51	-1,8794E00
839,82	3,0575E00
840,14	2,4709E00
840,46	1,4600E-01
840,77	3,3783E00
841,09	0,0000E00
841,41	8,7531E-01
841,72	2,3462E00
842,04	-5,7788E00
842,35	1,6268E00
842,67	3,0010E00
842,99	3,4271E00
843,30	-2,2617E00
843,62	-3,5999E00
843,93	5,0102E00
844,25	-2,5636E00
844,56	4,5892E-01
844,88	1,3761E00
845,20	3,2181E00
845,51	-3,3814E00
845,83	1,5530E00
846,14	-4,1968E00
846,46	3,5359E00
846,77	-2,6388E00
847,09	-2,0421E00
847,40	-3,5983E00
847,72	4,7775E-01
848,03	-5,0397E00
848,35	-2,3836E00
848,66	4,6303E00
848,98	-2,0704E00
849,29	3,1830E00
849,61	1,7715E00
849,92	1,7614E00
850,24	-2,4260E00
850,55	-3,4145E00
850,87	-2,1208E00
851,18	-3,2573E-01
851,50	1,8110E00
851,81	-9,8228E-01
852,12	1,1501E00
852,44	-6,6485E-01
852,75	3,3349E00
853,07	-1,6729E-01
853,38	8,4364E-01
853,70	-1,5070E00
854,01	2,5028E00
854,32	8,4584E-01
854,64	1,2083E00
854,95	1,3647E00
855,27	2,0480E00
855,58	-2,0599E00
855,89	2,4398E00
856,21	-3,9771E00
856,52	-1,1954E00
856,83	3,6196E00
857,15	7,0050E00
857,46	4,2355E00
857,77	1,7500E00
858,09	8,8182E-01
858,40	1,2330E00
858,71	0,0000E00
859,03	2,5048E00
859,34	1,7909E-01
859,65	2,5147E00
859,97	3,0647E00
860,28	3,0879E00
860,59	4,2176E00
860,91	0,0000E00
861,22	-3,4866E00
861,53	1,4609E00
861,84	5,5314E-01
862,16	-7,0152E00
862,47	4,0628E00
862,78	-2,4179E00
863,10	-3,7767E-01
863,41	-1,8623E-01
863,72	1,8848E00
864,03	-1,3310E00
864,35	-3,6290E00
864,66	-4,3685E00
864,97	-5,1586E00
865,28	-5,7184E00
865,59	-5,0118E00
865,91	1,5467E00
866,22	5,8294E-01
866,53	-9,6852E-01
866,84	1,9776E-01
867,15	-1,7721E00
867,47	-3,1570E00
867,78	5,9070E-01
868,09	1,3905E00
868,40	-1,8099E00
868,71	-1,2099E00
869,02	1,8359E00
869,34	1,0118E00
869,65	-6,1650E00
869,96	-3,6514E00
870,27	-4,7327E00
870,58	-2,6753E00
870,89	-7,2296E00
871,20	-4,3762E00
871,52	-2,7054E00
871,83	4,2101E-01
872,14	4,1994E00
872,45	-4,4538E00
872,76	2,3356E00
873,07	1,9096E00
873,38	3,2255E00
873,69	1,0726E00
874,00	5,4193E00
874,31	2,1861E-01
874,62	4,1173E00
874,94	6,5938E00
875,25	-3,6988E00
875,56	-4,2082E00
875,87	1,5534E00
876,18	1,5426E00
876,49	-5,1159E00
876,80	4,2852E00
877,11	1,1070E00
877,42	-2,8861E00
877,73	-9,2555E00
878,04	9,0088E-01
878,35	-4,0938E00
878,66	1,3715E00
878,97	1,5988E00
879,28	-2,5333E00
879,59	-5,5383E00
879,90	-1,1495E00
880,21	2,3404E-01
880,52	-3,6629E00
880,83	3,9551E00
881,14	3,7433E00
881,45	-7,6689E00
881,76	2,5587E00
882,07	-4,6070E-01
882,37	-4,6769E-01
882,68	4,8716E00
882,99	-4,8555E00
883,30	6,9401E-01
883,61	2,3250E-01
883,92	1,1780E00
884,23	2,3098E-01
884,54	-2,2896E-01
884,85	6,9618E-01
885,16	8,3972E00
885,47	-6,8208E00
885,77	4,8742E00
886,08	-2,3348E00
886,39	2,5665E00
886,70	7,1219E00
887,01	-3,2644E00
887,32	2,3134E00
887,63	-6,9419E-01
887,93	1,1484E00
888,24	-4,5775E00
888,55	-4,4223E00
888,86	6,9315E-01
889,17	-1,1601E00
889,47	3,0106E00
889,78	2,7694E00
890,09	2,5734E00
890,40	-2,5377E00
890,71	-6,4761E00
891,01	3,9278E00
891,32	5,5418E00
891,63	8,9822E00
891,94	-9,2621E00
892,25	-6,9403E-01
892,55	-4,8900E00
892,86	2,3161E-01
893,17	-6,7216E00
893,48	-1,0832E01
893,78	-5,9753E00
894,09	-1,1569E00
894,40	-5,3100E00
894,70	-1,0561E01
895,01	-1,2797E01
895,32	-2,7643E00
895,63	-3,4516E00
895,93	5,5112E00
896,24	5,5381E00
896,55	2,5443E00
896,85	2,0917E00
897,16	-2,7916E00
897,47	6,8718E-01
897,77	9,7533E00
898,08	-4,9288E00
898,39	4,6452E-01
898,69	-1,1703E00
899,00	7,5086E00
899,31	5,3124E00
899,61	4,7167E-01
899,92	-5,3531E00
900,23	2,0905E00
900,53	-7,1055E00
900,84	4,0179E00
901,14	-4,4903E00
901,45	-2,3526E00
901,76	-3,7448E00
902,06	9,5333E-01
902,37	-3,3163E00
902,67	-7,1358E00
902,98	-6,0137E00
903,29	5,0371E00
903,59	7,1237E-01
903,90	-3,8724E00
904,20	3,3832E00
904,51	2,4367E00
904,81	-4,6002E00
905,12	4,8370E-01
905,42	-9,7284E-01
905,73	2,9344E00
906,03	-1,9690E00
906,34	7,9157E00
906,64	4,4492E00
906,95	-1,2382E00
907,25	-2,4416E00
907,56	8,0403E00
907,86	5,1944E00
908,17	1,4974E00
908,47	-3,2725E00
908,78	-1,0096E00
909,08	-3,5423E00
909,39	-1,2674E00
909,69	-2,5820E-01
910,00	-2,5793E00
910,30	-2,5705E-01
910,61	1,0411E00
910,91	-1,8158E00
911,21	-1,0587E00
911,52	-2,6378E-01
911,82	-7,1289E00
912,13	-3,6969E00
912,43	3,6762E00
912,74	1,0789E00
913,04	2,4023E00
913,34	2,6580E-01
913,65	-3,7869E00
913,95	-5,4451E00
914,25	4,1395E00
914,56	-3,8100E00
914,86	-4,9652E00
915,17	8,3367E00
915,47	-1,3865E01
915,77	1,4007E00
916,08	4,1901E00
916,38	4,8346E00
916,68	4,7946E00
916,99	-1,1319E00
917,29	-8,8337E00
917,59	7,5295E00
917,90	5,5419E00
918,20	1,4582E00
918,50	6,6657E00
918,80	2,9255E-01
919,11	2,9078E-01
919,41	1,1780E01
919,71	3,2214E00
920,02	-1,0756E01
920,32	-5,9893E00
920,62	-2,7154E00
920,92	9,0463E-01
921,23	4,8310E00
921,53	-7,9552E00
921,83	-3,0621E-01
922,13	-1,5396E00
922,44	1,2179E01
922,74	4,6966E00
923,04	-3,4339E00
923,34	-6,2462E00
923,64	-5,0233E00
923,95	9,4893E00
924,25	6,3655E00
924,55	1,2738E01
924,85	-3,2258E00
925,15	9,7174E00
925,46	5,1648E00
925,76	9,9682E-01
926,06	1,3118E01
926,36	-4,9147E00
926,66	6,6906E00
926,96	-6,3340E00
927,26	-2,6661E00
927,57	4,0074E00
927,87	1,6904E00
928,17	6,1314E00
928,47	-6,8795E00
928,77	1,0355E00
929,07	-3,8186E00
929,37	-4,8568E00
929,67	1,7426E00
929,98	2,8186E00
930,28	-1,0722E00
930,58	-7,1735E00
930,88	-3,5215E00
931,18	6,8987E00
931,48	9,7894E00
931,78	-7,3342E-01
932,08	7,6767E00
932,38	-3,3268E00
932,68	-1,3320E01
932,98	-2,6110E00
933,28	4,1419E00
933,58	3,8224E-01
933,88	1,8992E00
934,18	9,9669E00
934,48	-2,1206E01
934,78	-1,3019E01
935,08	-1,1650E01
935,38	7,7491E00
935,68	3,1326E00
935,98	-4,3147E00
936,28	-6,7776E00
936,58	3,9838E00
936,88	-5,5332E00
937,18	8,0480E-01
937,48	-3,6005E00
937,78	-1,0913E01
938,08	1,5946E01
938,38	-1,4191E01
938,68	-9,1260E00
938,98	-8,7863E00
939,28	-5,4518E00
939,57	-2,0918E00
939,87	-1,2638E00
940,17	4,2763E00
940,47	-3,4029E00
940,77	-8,2890E00
941,07	-1,3008E00
941,37	8,6493E-01
941,67	9,6101E00
941,97	6,2025E00
942,26	4,8455E00
942,56	1,0351E01
942,86	-1,2064E01
943,16	-1,3459E01
943,46	-1,0658E01
943,76	3,1777E00
944,06	-7,1966E00
944,35	1,6882E01
944,65	-1,8830E00
944,95	8,0044E00
945,25	-6,6231E00
945,55	-4,2528E00
945,84	-7,1208E00
946,14	2,8888E00
946,44	-3,3796E00
946,74	-6,7598E00
947,03	-7,2934E00
947,33	1,9726E00
947,63	-3,9584E00
947,93	1,4615E00
948,23	0,0000E00
948,52	-8,0887E00
948,82	-7,6007E00
949,12	-6,6566E00
949,41	-1,0600E01
949,71	7,2451E00
950,01	1,5683E00
950,31	3,1644E00
950,60	1,0354E00
950,90	-1,0566E01
951,20	3,2097E00
951,49	2,1342E00
951,79	0,0000E00
952,09	4,9028E00
952,38	1,9319E01
952,68	-1,1103E01
952,98	3,8720E00
953,27	-7,3083E00
953,57	-2,2141E00
953,87	5,0446E00
954,16	-1,7003E00
954,46	6,3232E00
954,76	6,9215E00
955,05	9,9099E00
955,35	-9,9094E00
955,64	1,1665E01
955,94	6,3825E00
956,24	7,7442E00
956,53	-1,8132E01
956,83	-2,4417E01
957,12	1,9867E01
957,42	-2,4474E00
957,72	-1,7200E01
958,01	6,7566E00
958,31	1,8575E00
958,60	1,0610E01
958,90	-6,9572E00
959,19	-6,9462E00
959,49	-1,3229E01
959,78	7,1572E00
960,08	7,7373E00
960,37	5,9141E00
960,67	-2,9706E01
960,96	0,0000E00
961,26	-4,0266E00
961,55	-1,6942E01
961,85	-5,3568E00
962,14	0,0000E00
962,44	-1,2471E01
962,73	-1,7797E01
963,03	2,7727E00
963,32	4,8804E00
963,62	6,9411E-01
963,91	2,8516E00
964,21	-1,0649E01
964,50	-1,3820E01
964,80	7,2788E-01
965,09	5,1593E00
965,38	5,9290E00
965,68	-1,1813E01
965,97	1,3862E01
966,27	3,0076E00
966,56	-2,6566E01
966,85	-9,1740E00
967,15	-2,7927E01
967,44	-5,4086E00
967,74	1,0176E01
968,03	3,1184E00
968,32	-1,1086E01
968,62	1,9174E01
968,91	-6,4200E00
969,20	-9,8400E00
969,50	-7,3158E00
969,79	-8,2600E-01
970,08	-2,2257E01
970,38	-2,4921E00
970,67	1,3204E01
970,96	-1,5833E01
971,26	-9,3476E00
971,55	1,3736E01
971,84	-1,7196E01
972,13	1,3176E01
972,43	-1,0373E01
972,72	-1,2274E01
973,01	-1,4858E01
973,31	-6,3867E00
973,60	-3,5735E00
973,89	7,1453E00
974,18	-1,7133E01
974,48	-5,4357E00
974,77	-6,3728E00
975,06	-2,8232E00
975,35	5,7942E01
975,64	-5,8622E00
975,94	1,8509E01
976,23	-2,6300E01
976,52	1,5599E01
976,81	-4,9587E00
977,10	1,0096E00
977,40	-4,9735E00
977,69	3,0388E00
977,98	-1,0334E01
978,27	1,5689E01
978,56	-1,9835E01
978,86	4,3154E00
979,15	-3,1222E00
979,44	1,2928E01
979,73	-1,7113E01
980,02	3,2277E00
980,31	1,5487E01
980,60	-2,3271E01
980,89	-3,2465E00
981,19	2,7798E01
981,48	-1,4703E01
981,77	-6,8034E00
982,06	-1,0263E01
982,35	4,5303E01
982,64	-6,3105E01
982,93	1,2951E01
983,22	-1,9173E01
983,51	-8,3959E00
983,80	5,0998E01
984,09	-2,8847E01
984,38	2,3593E01
984,67	3,4489E01
984,96	0,0000E00
985,25	-1,2569E01
985,55	-3,1318E01
985,84	2,5284E00
986,13	-4,0423E01
986,42	6,3773E00
986,71	-1,3298E01
987,00	2,6401E00
987,29	-2,9807E01
987,58	-6,2979E01
987,86	1,1047E01
988,15	-1,8997E01
988,44	-2,6381E01
988,73	2,1122E01
989,02	1,6988E01
989,31	-5,8100E00
989,60	2,7433E01
989,89	4,2955E00
990,18	-5,9785E01
990,47	5,7957E00
990,76	0,0000E00
991,05	3,6065E01
991,34	-2,9954E00
991,63	-4,0468E01
991,92	9,0945E00
992,20	2,0124E01
992,49	-1,1042E01
992,78	-3,7426E01
993,07	-2,2671E01
993,36	-5,5904E01
993,65	-1,6332E00
993,94	2,8557E01
994,22	2,4748E01
994,51	5,2470E01
994,80	-2,4953E01
995,09	5,1478E01
995,38	-6,0337E01
995,67	2,0844E01
995,95	-5,4444E01
996,24	-2,9191E01
996,53	-1,8519E00
996,82	-1,8401E00
997,11	6,2735E01
997,39	7,4464E00
997,68	4,9942E01
997,97	1,1480E01
998,26	5,6216E00
998,54	3,2432E01
998,83	-4,3396E01
999,12	-2,5983E01
999,41	2,7660E01
999,69	-5,7170E01
999,98	-2,0317E01
1000,27	-3,9916E01
1000,56	-1,8315E01
1000,84	-8,3516E00
1001,13	-4,8096E01
1001,42	-1,7167E01
1001,70	-1,3119E01
1001,99	-3,4234E01
1002,28	-8,8329E00
1002,56	6,4284E01
1002,85	-5,2276E01
1003,14	-6,6806E01
1003,42	-7,5210E01
1003,71	-3,2705E01
1004,00	-2,2815E01
1004,28	-1,3777E01
1004,57	1,4756E02
1004,86	-2,2399E01
1005,14	2,5994E01
1005,43	6,2330E01
1005,72	-4,3563E01
1006,00	-4,2823E01
1006,29	-6,2047E01
1006,57	-5,1427E00
1006,86	-8,2230E01
1007,15	5,6302E01
1007,43	-6,4063E01
1007,72	4,1528E01
1008,00	-4,3101E01
1008,29	3,3021E01
1008,57	-9,2436E01
1008,86	-8,6383E01
1009,14	-5,7383E00
1009,43	-2,9466E00
1009,71	-5,4358E01
1010,00	2,5898E01
1010,29	-1,7613E01
1010,57	-3,2816E01
1010,86	-3,1151E00
1011,14	4,9339E01
1011,43	-8,7067E01
1011,71	-2,5527E01
1011,99	-1,0926E02
1012,28	-3,2513E01
1012,56	-8,3246E01
1012,85	8,3748E01
1013,13	-1,1342E02
1013,42	2,6260E01
1013,70	5,9301E01
1013,99	4,8095E01
1014,27	1,3589E01
1014,56	1,7510E01
1014,84	1,4442E01
1015,12	-2,4203E02
1015,41	1,0781E01
1015,69	-1,7688E01
1015,98	-1,7986E01
1016,26	-5,3080E01
1016,54	-3,4140E01
1016,83	-3,9168E00
1017,11	-6,7037E01
1017,39	-5,0343E01
1017,68	-1,1779E01
1017,96	-9,5357E01
1018,25	-1,9189E02
1018,53	9,9274E01
1018,81	6,1875E01
1019,10	-1,2818E02
1019,38	8,4717E01
1019,66	-3,8924E01
1019,94	-3,8529E01
1020,23	1,3038E01
1020,51	-4,5963E01
1020,79	-8,6742E01
1021,08	3,7075E01
1021,36	9,9409E01
1021,64	5,5783E01
1021,93	-9,3271E01
1022,21	-4,5669E01
1022,49	-4,5669E01
>>>>>End Processed Spectral Data<<<<<
