SpectraSuite Data File
++++++++++++++++++++++++++++++++++++
Date: Tue Oct 21 16:20:0 EET 2025
User: mkilpela
Dark Spectrum Present: Yes
Reference Spectrum Present: No
Number of Sampled Component Spectra: 1
Spectrometers: JAZA2845
Integration Time (usec): 4900 (JAZA2845)
Spectra Averaged: 1 (JAZA2845)
Boxcar Smoothing: 0 (JAZA2845)
Correct for Electrical Dark: No (JAZA2845)
Strobe/Lamp Enabled: No (JAZA2845)
Correct for Detector Non-linearity: No (JAZA2845)
Correct for Stray Light: No (JAZA2845)
Number of Pixels in Processed Spectrum: 2048
>>>>>Begin Processed Spectral Data<<<<<
340,21	0,0000E00
340,58	0,0000E00
340,96	0,0000E00
341,33	0,0000E00
341,70	-0,0000E00
342,07	0,0000E00
342,45	0,0000E00
342,82	-0,0000E00
343,19	-0,0000E00
343,57	-0,0000E00
343,94	-0,0000E00
344,31	-0,0000E00
344,68	0,0000E00
345,06	0,0000E00
345,43	0,0000E00
345,80	-0,0000E00
346,18	-0,0000E00
346,55	0,0000E00
346,92	0,0000E00
347,29	-0,0000E00
347,67	-0,0000E00
348,04	0,0000E00
348,41	0,0000E00
348,78	0,0000E00
349,16	-0,0000E00
349,53	-0,0000E00
349,90	-0,0000E00
350,27	-9,5033E-01
350,64	9,2160E-01
351,02	-4,0001E-01
351,39	4,6329E00
351,76	6,0650E-01
352,13	2,4141E00
352,51	-1,2764E01
352,88	1,3400E-01
353,25	5,7831E01
353,62	2,8571E00
353,99	6,3925E00
354,37	1,0889E00
354,74	2,0853E00
355,11	1,3678E00
355,48	4,9250E-01
355,85	-6,4785E00
356,23	5,6765E-01
356,60	-2,4141E00
356,97	-1,2807E00
357,34	-4,8386E-01
357,71	6,1742E00
358,08	1,3546E00
358,46	4,6892E-01
358,83	8,4331E-01
359,20	9,0836E-01
359,57	-2,6272E-01
359,94	2,1606E01
360,31	-4,6728E00
360,69	2,7389E00
361,06	-1,9044E00
361,43	2,1034E00
361,80	5,2929E00
362,17	-3,0602E00
362,54	6,0204E-01
362,91	1,1485E00
363,29	1,4545E00
363,66	4,7944E-01
364,03	1,3272E-01
364,40	2,0180E00
364,77	4,0803E00
365,14	3,0434E00
365,51	1,6838E-01
365,88	1,4671E00
366,26	1,3755E00
366,63	2,0949E00
367,00	-1,7978E00
367,37	1,5675E00
367,74	2,1994E00
368,11	-1,7083E00
368,48	-2,8776E-01
368,85	2,6438E00
369,22	6,2976E00
369,59	2,2273E-01
369,97	2,5721E00
370,34	1,7250E00
370,71	9,0600E-01
371,08	1,8567E00
371,45	-8,1161E-01
371,82	-1,1843E00
372,19	1,2376E00
372,56	1,6360E00
372,93	1,5868E00
373,30	-1,8495E00
373,67	-7,3502E-01
374,04	8,2495E-01
374,41	-5,6479E-01
374,78	1,2225E-01
375,15	1,6341E00
375,52	-2,0547E-01
375,89	2,1171E00
376,26	-5,0922E-01
376,63	9,6194E-01
377,00	-7,6402E-01
377,38	2,6572E-01
377,75	-1,4341E00
378,12	5,4917E-01
378,49	2,2752E00
378,86	1,0874E00
379,23	2,2247E00
379,60	2,4070E00
379,97	7,0498E-01
380,34	4,1267E00
380,71	9,8516E-01
381,08	6,2857E-01
381,45	1,4131E00
381,82	2,7561E00
382,19	3,6943E-01
382,55	3,9472E-01
382,92	1,6563E00
383,29	1,3326E00
383,66	2,0724E00
384,03	2,1025E00
384,40	2,6907E00
384,77	-6,7502E-01
385,14	-3,3612E-01
385,51	1,6858E00
385,88	1,2590E00
386,25	5,6278E-01
386,62	7,5687E-01
386,99	-3,1627E-01
387,36	1,7036E00
387,73	1,9476E00
388,10	-4,6795E-01
388,47	7,2229E-01
388,84	-1,6269E-01
389,21	1,4162E00
389,58	4,2392E00
389,94	9,5524E-01
390,31	1,6430E00
390,68	9,1712E-01
391,05	8,7807E-01
391,42	3,7782E-01
391,79	4,8902E-01
392,16	2,5405E-01
392,53	3,5443E-01
392,90	3,8344E-01
393,27	1,4154E00
393,63	2,2733E00
394,00	5,0890E-01
394,37	-1,4958E-01
394,74	8,9485E-01
395,11	1,5798E-01
395,48	6,8983E-01
395,85	-5,7889E-01
396,22	5,7427E-01
396,58	1,1548E00
396,95	2,4563E00
397,32	4,9141E-02
397,69	7,0297E-01
398,06	7,9918E-01
398,43	8,2733E-01
398,80	8,2024E-01
399,16	4,5991E-01
399,53	1,1529E00
399,90	1,5813E00
400,27	1,1871E00
400,64	5,7614E-01
401,01	7,9840E-01
401,37	1,7425E-01
401,74	3,2959E00
402,11	2,5921E00
402,48	1,2720E00
402,85	5,1868E-01
403,22	1,0294E00
403,58	2,4011E00
403,95	9,4438E-01
404,32	2,0226E00
404,69	9,5277E-01
405,06	2,7027E-01
405,42	1,3412E00
405,79	-3,8762E-02
406,16	2,2742E00
406,53	2,2134E00
406,89	8,6488E-01
407,26	1,3074E00
407,63	2,2196E00
408,00	2,4500E00
408,37	1,1027E00
408,73	1,3759E00
409,10	1,9690E00
409,47	1,7353E00
409,84	-2,7767E-01
410,20	5,7726E-01
410,57	1,6781E00
410,94	1,3183E-01
411,31	1,4847E00
411,67	3,6904E-02
412,04	1,8871E00
412,41	7,8906E-02
412,77	1,1277E00
413,14	2,3005E00
413,51	1,7085E00
413,88	6,7757E-01
414,24	1,5877E00
414,61	2,3859E-01
414,98	2,5648E00
415,34	1,3147E00
415,71	1,7329E00
416,08	9,4554E-01
416,45	7,9455E-01
416,81	1,6401E00
417,18	1,2846E00
417,55	1,4502E00
417,91	1,4475E00
418,28	1,7199E00
418,65	1,8827E00
419,01	2,2210E00
419,38	1,5341E00
419,75	1,6455E00
420,11	2,6571E00
420,48	3,2397E00
420,85	3,5897E00
421,21	5,0065E00
421,58	4,7886E00
421,95	5,9437E00
422,31	7,7236E00
422,68	7,6355E00
423,05	1,1148E01
423,41	1,1264E01
423,78	1,1561E01
424,15	1,5385E01
424,51	1,6667E01
424,88	1,8236E01
425,24	1,8285E01
425,61	2,0756E01
425,98	2,4506E01
426,34	2,7472E01
426,71	3,0453E01
427,07	3,2306E01
427,44	3,3267E01
427,81	3,6207E01
428,17	3,9931E01
428,54	3,9662E01
428,90	4,5066E01
429,27	4,6595E01
429,64	4,9061E01
430,00	5,3918E01
430,37	5,8919E01
430,73	6,4434E01
431,10	6,4613E01
431,46	6,8857E01
431,83	7,6022E01
432,20	8,3266E01
432,56	9,0035E01
432,93	9,6696E01
433,29	9,9364E01
433,66	1,1150E02
434,02	1,1831E02
434,39	1,2495E02
434,75	1,3758E02
435,12	1,4822E02
435,49	1,7075E02
435,85	1,7837E02
436,22	1,8366E02
436,58	1,9498E02
436,95	2,1061E02
437,31	2,2651E02
437,68	2,4604E02
438,04	2,6227E02
438,41	2,6760E02
438,77	2,9683E02
439,14	3,0226E02
439,50	3,0018E02
439,87	3,3370E02
440,23	3,5174E02
440,60	3,7361E02
440,96	3,8780E02
441,33	4,1442E02
441,69	4,2722E02
442,06	4,4613E02
442,42	4,6560E02
442,78	4,7829E02
443,15	4,9045E02
443,51	4,9865E02
443,88	5,1647E02
444,24	5,3047E02
444,61	5,3835E02
444,97	5,4848E02
445,34	5,9549E02
445,70	5,7677E02
446,07	6,0322E02
446,43	5,9055E02
446,79	6,0367E02
447,16	6,0791E02
447,52	6,1662E02
447,89	6,0908E02
448,25	6,2222E02
448,62	6,3807E02
448,98	6,0545E02
449,34	6,1799E02
449,71	6,3678E02
450,07	6,0459E02
450,44	6,2353E02
450,80	6,2549E02
451,16	6,1569E02
451,53	6,0894E02
451,89	6,0058E02
452,25	6,0040E02
452,62	6,2287E02
452,98	5,7616E02
453,35	5,7760E02
453,71	5,5777E02
454,07	5,5470E02
454,44	5,4432E02
454,80	5,2707E02
455,16	5,1351E02
455,53	4,9558E02
455,89	4,5798E02
456,25	4,4319E02
456,62	4,2442E02
456,98	4,2922E02
457,34	4,1329E02
457,71	3,9754E02
458,07	3,6591E02
458,43	3,5976E02
458,80	3,3840E02
459,16	3,2141E02
459,52	3,2433E02
459,89	2,9806E02
460,25	2,7926E02
460,61	2,7436E02
460,98	2,5974E02
461,34	2,4563E02
461,70	2,3143E02
462,07	2,2489E02
462,43	2,1297E02
462,79	2,0844E02
463,15	1,9414E02
463,52	1,9142E02
463,88	1,8205E02
464,24	1,7149E02
464,61	1,5876E02
464,97	1,5798E02
465,33	1,4867E02
465,69	1,3722E02
466,06	1,3085E02
466,42	1,2981E02
466,78	1,1896E02
467,14	1,1189E02
467,51	1,0159E02
467,87	9,7335E01
468,23	9,1926E01
468,59	8,4882E01
468,95	7,5405E01
469,32	6,9853E01
469,68	6,4973E01
470,04	5,7456E01
470,40	5,2962E01
470,77	4,7487E01
471,13	4,3809E01
471,49	3,9489E01
471,85	3,4616E01
472,21	3,0944E01
472,58	2,6327E01
472,94	2,3072E01
473,30	1,8411E01
473,66	1,4500E01
474,02	1,2102E01
474,39	9,4236E00
474,75	6,2619E00
475,11	5,0996E00
475,47	3,2053E00
475,83	2,9558E00
476,19	2,0100E00
476,56	1,2230E00
476,92	1,2611E00
477,28	3,9481E-01
477,64	3,3317E-01
478,00	4,7615E-01
478,36	1,0817E00
478,72	5,1454E-01
479,09	3,0131E-01
479,45	-3,7064E-01
479,81	-1,2918E-01
480,17	4,5343E-01
480,53	2,8804E-01
480,89	3,4892E-01
481,25	1,8457E-01
481,61	4,2528E-01
481,97	8,6280E-01
482,34	4,8507E-01
482,70	3,9973E-01
483,06	5,2194E-01
483,42	2,8449E-01
483,78	4,6451E-01
484,14	2,8425E-01
484,50	-3,5411E-01
484,86	1,7438E-01
485,22	2,6869E-01
485,58	2,6600E-01
485,94	1,6100E-01
486,31	3,6405E-01
486,67	1,9257E-01
487,03	-1,1233E-02
487,39	2,9436E-01
487,75	4,6439E-01
488,11	4,8119E-01
488,47	-4,4300E-02
488,83	4,3941E-01
489,19	-2,9483E-01
489,55	5,4330E-01
489,91	1,1828E-01
490,27	1,1891E-01
490,63	-2,0097E-01
490,99	4,5747E-01
491,35	4,0996E-01
491,71	3,2486E-01
492,07	3,4815E-01
492,43	2,1587E-01
492,79	2,0430E-02
493,15	6,0004E-01
493,51	-6,2016E-02
493,87	1,2054E-01
494,23	1,3208E-01
494,59	2,3203E-01
494,95	1,6052E-01
495,31	2,9945E-01
495,67	2,5987E-01
496,03	9,7919E-02
496,39	1,3713E-01
496,75	3,5639E-01
497,11	2,6163E-01
497,47	0,0000E00
497,83	2,7978E-01
498,19	5,6502E-02
498,55	1,2502E-01
498,91	5,3596E-01
499,27	2,7511E-01
499,63	6,4822E-02
499,98	1,2990E-01
500,34	2,4029E-01
500,70	4,6116E-02
501,06	4,3405E-01
501,42	1,8454E-02
501,78	2,6413E-01
502,14	8,1813E-02
502,50	1,2645E-01
502,86	1,8694E-01
503,22	2,5891E-01
503,58	1,7959E-01
503,94	-7,9619E-02
504,29	-8,8018E-02
504,65	1,1523E-01
505,01	-1,5870E-01
505,37	2,4055E-01
505,73	2,8921E-01
506,09	-2,1098E-01
506,45	-2,7480E-01
506,81	1,7579E-02
507,16	1,8296E-01
507,52	2,5984E-02
507,88	1,2271E-01
508,24	3,1897E-01
508,60	-4,3032E-02
508,96	-8,6740E-03
509,32	1,0391E-01
509,67	3,4511E-02
510,03	-1,2941E-01
510,39	1,2924E-01
510,75	2,0794E-01
511,11	1,6432E-01
511,47	4,9794E-01
511,82	1,6344E-01
512,18	2,3162E-01
512,54	1,5575E-01
512,90	8,6204E-03
513,26	-2,5662E-02
513,61	-6,8239E-02
513,97	1,6376E-01
514,33	6,8521E-02
514,69	1,9945E-01
515,05	4,2191E-01
515,40	7,7826E-02
515,76	3,4622E-01
516,12	-1,1078E-01
516,48	3,2582E-01
516,83	1,6447E-01
517,19	-4,2711E-02
517,55	-1,0394E-01
517,91	2,5691E-02
518,26	-8,5844E-03
518,62	-1,4495E-01
518,98	0,0000E00
519,34	2,5819E-01
519,69	-1,7043E-02
520,05	2,2227E-01
520,41	8,5095E-03
520,77	2,1246E-01
521,12	3,0013E-01
521,48	0,0000E00
521,84	1,1984E-01
522,19	6,0216E-02
522,55	-4,2756E-02
522,91	4,2586E-01
523,27	1,9764E-01
523,62	8,5636E-02
523,98	0,0000E00
524,34	-1,8512E-01
524,69	4,3415E-02
525,05	1,7450E-02
525,41	-1,2046E-01
525,76	1,4570E-01
526,12	3,4029E-02
526,48	8,6754E-02
526,83	2,3877E-01
527,19	-6,7298E-02
527,55	1,8774E-01
527,90	2,0213E-01
528,26	1,4489E-01
528,62	-4,4673E-01
528,97	1,4316E-01
529,33	1,8336E-01
529,69	4,2022E-01
530,04	1,0136E-01
530,40	1,2554E-01
530,76	7,5602E-02
531,11	1,7603E-01
531,47	-5,8284E-02
531,82	-1,1734E-01
532,18	-7,5913E-02
532,54	1,3392E-01
532,89	9,2772E-02
533,25	-1,8381E-01
533,60	6,6722E-02
533,96	1,8359E-01
534,32	4,2452E-01
534,67	1,4917E-01
535,03	4,3526E-01
535,38	5,1351E-02
535,74	-4,0803E-02
536,10	9,8471E-02
536,45	1,0749E-01
536,81	2,7246E-01
537,16	7,4431E-02
537,52	1,5577E-01
537,87	-7,3404E-02
538,23	1,9500E-01
538,58	1,5056E-01
538,94	4,8697E-02
539,30	-1,2098E-01
539,65	1,1256E-01
540,01	2,9776E-01
540,36	1,8621E-01
540,72	2,5739E-01
541,07	1,5089E-01
541,43	1,1973E-01
541,78	-1,0391E-01
542,14	5,2816E-01
542,49	2,0612E-01
542,85	2,3797E-01
543,20	5,1688E-01
543,56	-7,2130E-02
543,91	2,3567E-02
544,27	2,7411E-01
544,62	-8,5621E-02
544,98	-1,1775E-01
545,33	1,7155E-01
545,69	3,2887E-01
546,04	1,6391E-01
546,40	-1,7967E-01
546,75	-1,8789E-01
547,10	1,1681E-01
547,46	-2,3440E-02
547,81	1,6232E-01
548,17	2,1870E-01
548,52	-7,7191E-03
548,88	1,7844E-01
549,23	-3,0897E-02
549,59	1,6960E-01
549,94	3,8677E-01
550,29	2,8429E-01
550,65	2,2498E-01
551,00	1,6988E-01
551,36	1,9103E-01
551,71	1,1418E-01
552,06	-2,2910E-02
552,42	1,2311E-01
552,77	1,9165E-01
553,13	2,8954E-01
553,48	8,4046E-02
553,83	-1,5391E-02
554,19	0,0000E00
554,54	2,5227E-01
554,90	3,0501E-02
555,25	-2,2967E-02
555,60	4,6174E-02
555,96	1,0734E-01
556,31	6,1524E-02
556,66	3,0584E-02
557,02	1,9017E-01
557,37	3,2155E-01
557,72	-7,7301E-03
558,08	2,3183E-02
558,43	-2,6868E-01
558,79	1,8584E-01
559,14	1,0126E-01
559,49	-1,1665E-01
559,85	1,0136E-01
560,20	-1,3189E-01
560,55	6,1784E-02
560,90	3,9858E-01
561,26	9,3271E-02
561,61	2,6544E-01
561,96	9,4041E-02
562,32	-1,8901E-01
562,67	4,7563E-01
563,02	1,2729E-01
563,38	2,0536E-01
563,73	-1,0260E-01
564,08	-1,5763E-02
564,43	1,8968E-01
564,79	1,4340E-01
565,14	3,2545E-01
565,49	1,8978E-01
565,84	-2,7124E-01
566,20	8,7406E-02
566,55	1,4528E-01
566,90	3,6068E-01
567,25	5,6250E-02
567,61	2,0222E-01
567,96	2,6669E-01
568,31	1,6226E-01
568,66	4,8812E-02
569,02	3,2783E-01
569,37	2,3808E-01
569,72	3,1920E-01
570,07	1,2992E-01
570,42	3,1344E-01
570,78	-9,9331E-02
571,13	7,3824E-02
571,48	1,3272E-01
571,83	3,8091E-01
572,18	1,0720E-01
572,54	-3,1773E-01
572,89	1,0977E-01
573,24	-1,6447E-02
573,59	-3,3336E-02
573,94	-1,1568E-01
574,30	-1,3146E-01
574,65	4,1141E-02
575,00	-1,3316E-01
575,35	-1,6711E-02
575,70	4,9732E-02
576,05	-2,0859E-01
576,40	-1,6871E-02
576,76	-1,3380E-01
577,11	-1,5743E-01
577,46	4,1588E-02
577,81	-1,0079E-01
578,16	-1,9302E-01
578,51	2,8389E-01
578,86	-8,3706E-02
579,21	-5,0679E-02
579,57	2,7019E-01
579,92	-3,3578E-02
580,27	3,1869E-01
580,62	2,9576E-01
580,97	-3,3543E-02
581,32	-1,3440E-01
581,67	0,0000E00
582,02	1,0983E-01
582,37	-6,7357E-02
582,72	-1,6908E-01
583,08	1,6052E-01
583,43	-1,2699E-01
583,78	-1,3620E-01
584,13	-1,2771E-01
584,48	1,3517E-01
584,83	7,6480E-02
585,18	1,1802E-01
585,53	8,4428E-03
585,88	1,6964E-02
586,23	4,2512E-02
586,58	-1,0954E-01
586,93	-2,5356E-02
587,28	7,7089E-02
587,63	0,0000E00
587,98	1,6086E-01
588,33	1,6843E-01
588,68	2,2102E-01
589,03	2,0286E-01
589,38	2,9777E-01
589,73	2,0996E-01
590,08	-1,7036E-02
590,43	-2,2231E-01
590,78	-6,7245E-02
591,13	1,3550E-01
591,48	4,2546E-02
591,83	3,5685E-01
592,18	1,7108E-01
592,53	1,6170E-01
592,88	2,8998E-01
593,23	5,1516E-01
593,58	1,6962E-02
593,93	-8,5188E-03
594,28	-1,2742E-01
594,63	1,6430E-01
594,98	2,4732E-01
595,33	1,1106E-01
595,68	4,2990E-02
596,02	5,0526E-01
596,37	1,7312E-01
596,72	-1,8061E-01
597,07	1,4503E-01
597,42	-1,7210E-02
597,77	9,4084E-02
598,12	-1,5433E-01
598,47	3,1302E-01
598,82	3,6355E-01
599,17	1,4559E-01
599,52	8,6725E-03
599,86	8,5916E-02
600,21	6,0508E-02
600,56	1,4741E-01
600,91	-2,0948E-01
601,26	-1,4759E-01
601,61	5,2719E-02
601,96	1,9276E-01
602,30	1,5576E-01
602,65	1,1372E-01
603,00	4,7480E-01
603,35	2,0314E-01
603,70	4,3999E-02
604,05	2,0398E-01
604,40	2,0425E-01
604,74	-1,1578E-01
605,09	1,7789E-01
605,44	-4,4655E-02
605,79	2,0598E-01
606,14	1,5233E-01
606,48	0,0000E00
606,83	2,6909E-02
607,18	5,4391E-02
607,53	2,5396E-01
607,88	7,2402E-02
608,22	-7,2706E-02
608,57	-6,3877E-02
608,92	-1,7297E-01
609,27	-2,6740E-01
609,62	9,1432E-03
609,96	1,3806E-01
610,31	-1,0167E-01
610,66	2,4162E-01
611,01	1,3896E-01
611,35	6,4621E-02
611,70	1,7756E-01
612,05	2,7176E-01
612,40	1,8855E-01
612,74	-4,6729E-02
613,09	3,1149E-01
613,44	-1,7867E-01
613,79	4,3565E-01
614,13	1,4320E-01
614,48	1,5253E-01
614,83	3,4468E-01
615,17	-2,3904E-01
615,52	1,0624E-01
615,87	-2,1221E-01
616,22	2,1120E-01
616,56	-1,2561E-01
616,91	-5,8156E-02
617,26	-1,5567E-01
617,60	1,7487E-01
617,95	3,8981E-02
618,30	1,7595E-01
618,64	6,0676E-01
618,99	2,2596E-01
619,34	4,3609E-01
619,68	-1,1866E-01
620,03	4,7511E-01
620,38	1,0852E-01
620,72	4,4388E-01
621,07	3,2864E-01
621,42	-1,9980E-02
621,76	1,9896E-02
622,11	-2,7747E-01
622,45	4,3973E-01
622,80	6,6006E-01
623,15	1,1123E-01
623,49	2,3260E-01
623,84	-1,7235E-01
624,18	8,1149E-02
624,53	-5,0869E-02
624,88	2,5112E-01
625,22	-6,0055E-01
625,57	-7,1479E-02
625,91	4,0537E-02
626,26	-1,7393E-01
626,61	1,6421E-01
626,95	2,0706E-02
627,30	3,7980E-01
627,64	6,2015E-02
627,99	-1,0413E-01
628,33	1,4423E-01
628,68	-2,0687E-02
629,03	2,2878E-01
629,37	2,7065E-01
629,72	1,0392E-01
630,06	1,5619E-01
630,41	-1,4600E-01
630,75	4,9311E-01
631,10	4,2730E-01
631,44	5,2705E-02
631,79	5,6876E-01
632,13	-2,1181E-02
632,48	3,3916E-01
632,82	4,4558E-01
633,17	-2,2541E-01
633,51	-8,5135E-02
633,86	5,3441E-02
634,20	-9,6186E-02
634,55	-1,3816E-01
634,89	-4,3026E-02
635,24	1,0651E-02
635,58	2,5748E-01
635,93	-6,3354E-01
636,27	-1,3904E-01
636,62	1,7187E-01
636,96	1,2891E-01
637,30	1,9516E-01
637,65	-1,4207E-01
637,99	3,2463E-02
638,34	3,1422E-01
638,68	1,5210E-01
639,03	9,7375E-02
639,37	3,9401E-01
639,71	4,9541E-01
640,06	8,7225E-02
640,40	1,3201E-01
640,75	1,2083E-01
641,09	1,7630E-01
641,44	-3,2984E-02
641,78	-2,4276E-01
642,12	0,0000E00
642,47	2,1085E-01
642,81	1,0983E-01
643,15	1,5557E-01
643,50	5,5444E-02
643,84	-4,4465E-01
644,19	1,7823E-01
644,53	5,5979E-01
644,87	4,0180E-01
645,22	2,6931E-01
645,56	3,8384E-01
645,90	1,1311E-01
646,25	5,8602E-01
646,59	-6,7522E-02
646,93	2,3722E-01
647,28	6,7851E-02
647,62	7,0160E-01
647,96	2,2633E-02
648,31	2,1685E-01
648,65	-2,2726E-02
648,99	4,4545E-01
649,34	3,3159E-01
649,68	-8,0049E-02
650,02	-3,4306E-02
650,36	-2,9948E-01
650,71	3,6611E-01
651,05	3,8104E-01
651,39	-1,5019E-01
651,74	-8,1092E-02
652,08	-5,7635E-02
652,42	-1,7433E-01
652,76	4,1091E-01
653,11	1,1670E-01
653,45	2,3383E-01
653,79	4,7483E-02
654,13	-8,2232E-02
654,48	0,0000E00
654,82	2,1176E-01
655,16	3,0913E-01
655,50	6,7102E-01
655,85	3,5830E-01
656,19	0,0000E00
656,53	3,2373E-01
656,87	3,3727E-01
657,21	2,6147E-01
657,56	-3,6133E-02
657,90	-3,1252E-01
658,24	4,7925E-02
658,58	-7,2007E-02
658,92	-2,4115E-01
659,27	-3,0174E-01
659,61	2,5573E-01
659,95	-4,8315E-02
660,29	-9,6916E-02
660,63	-1,2251E-01
660,97	3,6442E-02
661,32	1,9693E-01
661,66	-9,8408E-02
662,00	2,0946E-01
662,34	-7,4539E-02
662,68	-7,4271E-02
663,02	1,2434E-02
663,37	-2,4882E-02
663,71	2,5002E-02
664,05	8,7361E-02
664,39	-7,5479E-02
664,73	-5,0343E-02
665,07	-1,5061E-01
665,41	1,0066E-01
665,75	-8,8786E-02
666,09	1,7817E-01
666,44	-4,4545E-01
666,78	-1,0186E-01
667,12	-2,5731E-02
667,46	2,6861E-01
667,80	-6,4370E-02
668,14	-1,9388E-01
668,48	-1,6808E-01
668,82	1,6874E-01
669,16	4,3113E-01
669,50	4,5715E-01
669,84	2,5888E-01
670,18	3,9475E-01
670,52	6,5581E-02
670,86	4,2003E-01
671,20	-1,3172E-02
671,54	4,6122E-01
671,88	3,4529E-01
672,22	-3,9948E-01
672,57	3,8850E-01
672,91	0,0000E00
673,25	6,7659E-01
673,59	2,8145E-01
673,93	1,3586E-02
674,27	5,4291E-02
674,61	3,9526E-01
674,95	8,1649E-02
675,28	1,5113E-01
675,62	9,6093E-02
675,96	1,2298E-01
676,30	5,3838E-01
676,64	2,4739E-01
676,98	1,6546E-01
677,32	-1,3857E-02
677,66	-9,7475E-02
678,00	4,1475E-02
678,34	3,6063E-01
678,68	3,9307E-01
679,02	5,5031E-01
679,36	-9,8389E-02
679,70	1,2702E-01
680,04	-1,7080E-01
680,38	2,2596E-01
680,72	4,4448E-01
681,06	1,1465E-01
681,39	3,1302E-01
681,73	1,7188E-01
682,07	-3,1777E-01
682,41	3,6398E-01
682,75	2,4904E-01
683,09	1,4468E-01
683,43	-1,6106E-01
683,77	-2,9151E-02
684,11	-3,6672E-01
684,44	-2,4979E-01
684,78	-5,8582E-02
685,12	2,0624E-01
685,46	-3,8606E-01
685,80	-5,9653E-02
686,14	2,6858E-01
686,48	4,0226E-01
686,81	2,6927E-01
687,15	2,9864E-01
687,49	-2,1146E-01
687,83	2,7138E-01
688,17	-1,6628E-01
688,51	-1,8127E-01
688,84	0,0000E00
689,18	1,9731E-01
689,52	4,5834E-01
689,86	1,6788E-01
690,20	3,5349E-01
690,53	3,6923E-01
690,87	-6,1450E-02
691,21	-3,0944E-01
691,55	-1,3859E-01
691,88	-1,4086E-01
692,22	3,1024E-02
692,56	3,1053E-01
692,90	1,5427E-02
693,23	-1,8806E-01
693,57	1,8737E-01
693,91	-1,5627E-02
694,25	3,3249E-01
694,58	4,8972E-01
694,92	4,7296E-01
695,26	8,0254E-01
695,60	-1,5946E-02
695,93	3,1912E-02
696,27	3,1708E-01
696,61	-2,7005E-01
696,94	-3,2006E-02
697,28	-2,8589E-01
697,62	-6,4311E-02
697,96	4,1981E-01
698,29	-1,4475E-01
698,63	4,8291E-02
698,97	-1,4676E-01
699,30	4,3528E-01
699,64	4,8297E-02
699,98	2,9215E-01
700,31	4,5712E-01
700,65	-8,0869E-02
700,99	1,1478E-01
701,32	-6,5317E-02
701,66	1,4709E-01
702,00	4,0922E-01
702,33	-9,8308E-02
702,67	2,1544E-01
703,00	3,9879E-01
703,34	-3,2972E-01
703,68	5,1268E-01
704,01	4,6783E-01
704,35	2,8370E-01
704,69	5,1414E-01
705,02	-4,6463E-01
705,36	6,6747E-02
705,69	-2,0049E-01
706,03	5,8288E-01
706,36	-1,1639E-01
706,70	5,0178E-02
707,04	-4,5090E-01
707,37	2,0148E-01
707,71	-5,0589E-01
708,04	1,3435E-01
708,38	-1,6937E-02
708,71	0,0000E00
709,05	-2,2079E-01
709,39	-3,7450E-01
709,72	7,3083E-01
710,06	-3,2343E-01
710,39	3,0696E-01
710,73	5,7654E-01
711,06	2,5602E-01
711,40	4,0648E-01
711,73	5,1260E-02
712,07	1,3703E-01
712,40	-4,6547E-01
712,74	4,2724E-01
713,07	-6,8282E-02
713,41	3,0934E-01
713,74	-5,0210E-01
714,08	2,4273E-01
714,41	7,4274E-01
714,75	6,4362E-01
715,08	1,3003E00
715,42	1,7353E-01
715,75	-2,1040E-01
716,08	-3,4632E-02
716,42	8,3841E-01
716,75	7,0343E-02
717,09	5,6152E-01
717,42	-3,1595E-01
717,76	1,1528E00
718,09	8,2870E-01
718,43	5,2608E-01
718,76	1,4019E-01
719,09	0,0000E00
719,43	1,7587E-01
719,76	1,0272E00
720,10	-2,8218E-01
720,43	4,9372E-01
720,76	2,1304E-01
721,10	1,0593E-01
721,43	1,2449E-01
721,76	-5,7145E-01
722,10	3,0268E-01
722,43	2,1516E-01
722,77	-5,3552E-02
723,10	3,9409E-01
723,43	-5,3553E-02
723,77	1,7937E-02
724,10	1,4352E-01
724,43	2,8807E-01
724,77	1,4401E-01
725,10	-3,9752E-01
725,43	7,1777E-02
725,77	1,8041E-01
726,10	4,3423E-01
726,43	-4,7146E-01
726,77	-2,7331E-01
727,10	1,8246E-02
727,43	-4,9257E-01
727,77	3,0977E-01
728,10	-3,1189E-01
728,43	-9,2311E-02
728,76	2,3910E-01
729,10	3,3009E-01
729,43	7,3445E-02
729,76	0,0000E00
730,09	1,8544E-02
730,43	3,3027E-01
730,76	8,1485E-01
731,09	4,6308E-01
731,42	5,3882E-01
731,76	6,5092E-01
732,09	5,2121E-01
732,42	2,4207E-01
732,75	7,1146E-01
733,09	2,6249E-01
733,42	3,7539E-01
733,75	-8,6610E-01
734,08	4,0018E-01
734,41	5,4753E-01
734,75	-3,7737E-02
735,08	1,3313E-01
735,41	2,4718E-01
735,74	1,9065E-02
736,07	2,3078E-01
736,41	-1,1513E-01
736,74	3,6522E-01
737,07	1,5412E-01
737,40	4,0589E-01
737,73	3,0898E-01
738,06	6,5523E-01
738,40	3,8789E-02
738,73	5,0332E-01
739,06	1,1764E-01
739,39	1,9645E-01
739,72	6,6541E-01
740,05	-5,8352E-02
740,38	-5,9161E-02
740,72	-3,3596E-01
741,05	9,8800E-02
741,38	4,3337E-01
741,71	-3,9696E-01
742,04	3,5618E-01
742,37	6,1466E-01
742,70	3,7835E-01
743,03	1,5962E-01
743,36	7,6253E-01
743,69	7,2206E-01
744,02	0,0000E00
744,36	6,0193E-01
744,69	4,8795E-01
745,02	6,0774E-02
745,35	-2,8431E-01
745,68	7,9482E-01
746,01	5,2946E-01
746,34	-2,6695E-01
746,67	-2,4755E-01
747,00	2,8834E-01
747,33	9,9622E-01
747,66	-1,6575E-01
747,99	-2,0725E-02
748,32	-5,8335E-01
748,65	1,4659E-01
748,98	2,4933E-01
749,31	2,0942E-01
749,64	-6,3196E-02
749,97	3,5670E-01
750,30	-4,4367E-01
750,63	-5,5160E-01
750,96	8,4980E-02
751,29	-1,9133E-01
751,62	5,1460E-01
751,95	0,0000E00
752,28	7,5223E-01
752,61	1,2892E-01
752,94	5,6116E-01
753,27	5,4087E-01
753,60	-2,3985E-01
753,92	2,1698E-01
754,25	-3,9406E-01
754,58	6,5744E-02
754,91	-4,4194E-02
755,24	9,4356E-01
755,57	6,5916E-02
755,90	-1,1199E-01
756,23	-1,1737E00
756,56	5,1300E-01
756,89	2,0078E-01
757,22	-8,9478E-02
757,54	2,0173E-01
757,87	-8,7674E-01
758,20	6,9754E-01
758,53	1,8100E-01
758,86	1,3509E-01
759,19	-1,1250E-01
759,52	-5,6980E-01
759,84	-5,7005E-01
760,17	2,7369E-01
760,50	9,6725E-01
760,83	7,5942E-01
761,16	-4,9355E-01
761,49	3,4975E-01
761,81	5,8156E-01
762,14	-2,3372E-02
762,47	1,4110E-01
762,80	-1,1733E-01
763,13	9,4048E-02
763,45	-9,4926E-02
763,78	1,1861E00
764,11	-3,5543E-01
764,44	1,4177E-01
764,77	3,0518E-01
765,09	2,3984E-01
765,42	4,7589E-02
765,75	1,3406E00
766,08	2,8672E-01
766,40	7,7131E-01
766,73	4,8120E-02
767,06	2,6634E-01
767,39	-1,2295E-01
767,71	6,3086E-01
768,04	1,1079E00
768,37	7,3616E-01
768,70	8,1014E-01
769,02	2,7233E-01
769,35	1,0611E00
769,68	-3,2325E-01
770,00	2,4826E-02
770,33	-4,4509E-01
770,66	3,4861E-01
770,99	5,3062E-01
771,31	4,5370E-01
771,64	1,3596E00
771,97	4,3454E-01
772,29	-2,7897E-01
772,62	9,6975E-01
772,95	6,1374E-01
773,27	-7,7164E-02
773,60	5,9314E-01
773,93	-4,6105E-01
774,25	-1,2854E-01
774,58	-7,7888E-02
774,90	1,0101E00
775,23	-4,6797E-01
775,56	-4,1837E-01
775,88	-9,9395E-01
776,21	5,2353E-02
776,54	4,7316E-01
776,86	1,1606E00
777,19	7,1104E-01
777,51	1,8599E-01
777,84	9,2663E-01
778,16	1,8758E-01
778,49	8,8573E-01
778,82	5,3536E-01
779,14	9,9686E-01
779,47	-2,9507E-01
779,79	7,0539E-01
780,12	5,1619E-01
780,44	6,2824E-01
780,77	-6,5211E-01
781,10	-3,5573E-01
781,42	-5,4914E-02
781,75	1,9437E-01
782,07	-2,7642E-02
782,40	8,0339E-01
782,72	-3,3311E-01
783,05	-3,6545E-01
783,37	5,6329E-02
783,70	-2,8111E-01
784,02	8,7187E-01
784,35	8,4011E-02
784,67	1,0274E00
785,00	-7,4759E-01
785,32	-2,8758E-01
785,65	4,0199E-01
785,97	1,4270E-01
786,30	-1,0487E00
786,62	2,5859E-01
786,94	-4,3633E-01
787,27	2,6186E-01
787,59	7,0257E-01
787,92	-4,1023E-01
788,24	-3,1961E-01
788,57	-3,7781E-01
788,89	2,0636E-01
789,22	-2,9125E-01
789,54	-2,3335E-01
789,86	5,5079E-01
790,19	4,9574E-01
790,51	5,7870E-02
790,84	1,6183E00
791,16	-3,8002E-01
791,48	3,2394E-01
791,81	1,2300E00
792,13	6,1820E-01
792,45	-1,1728E-01
792,78	8,8068E-02
793,10	-2,3344E-01
793,43	-7,8933E-01
793,75	1,1328E00
794,07	-1,7739E-01
794,40	1,1948E00
794,72	-1,4441E-01
795,04	2,3138E-01
795,37	3,1663E-01
795,69	2,6608E-01
796,01	1,3117E00
796,34	-3,1975E-01
796,66	3,7321E-01
796,98	2,8454E-02
797,30	-3,4260E-01
797,63	1,4329E-01
797,95	3,9743E-01
798,27	8,5410E-02
798,60	7,1322E-01
798,92	-3,4461E-01
799,24	-5,7136E-02
799,56	3,7176E-01
799,89	-8,0244E-01
800,21	3,4329E-01
800,53	2,2782E-01
800,85	1,2784E00
801,18	8,6265E-02
801,50	-9,9311E-01
801,82	8,5842E-02
802,14	5,7031E-02
802,47	-9,8728E-01
802,79	-2,8789E-01
803,11	3,9564E-01
803,43	-5,9360E-01
803,75	2,5594E-01
804,08	9,8874E-01
804,40	-3,1371E-01
804,72	2,2773E-01
805,04	-5,3681E-01
805,36	-6,0372E-01
805,69	4,2600E-01
806,01	-8,2981E-01
806,33	-2,5779E-01
806,65	2,9088E-02
806,97	5,1632E-01
807,29	5,4724E-01
807,62	-8,8553E-01
807,94	6,0286E-01
808,26	4,0398E-01
808,58	-2,0288E-01
808,90	1,3068E00
809,22	8,1862E-01
809,54	1,2021E00
809,86	0,0000E00
810,18	-3,7828E-01
810,51	-8,5115E-01
810,83	-2,0535E-01
811,15	-8,8821E-02
811,47	-1,4670E-01
811,79	4,1582E-01
812,11	4,1060E-01
812,43	-9,6833E-01
812,75	8,9356E-02
813,07	4,1550E-01
813,39	3,8647E-01
813,71	9,1901E-01
814,03	5,0833E-01
814,35	5,9486E-01
814,67	4,7886E-01
814,99	6,8874E-01
815,31	4,2063E-01
815,64	1,4753E00
815,96	5,7172E-01
816,28	3,0106E-01
816,60	3,3436E-01
816,92	7,9770E-01
817,24	-9,1102E-01
817,56	-3,0628E-01
817,88	-1,8284E-01
818,19	6,1522E-02
818,51	2,1627E-01
818,83	4,2956E-01
819,15	1,1686E00
819,47	-8,3601E-01
819,79	3,1195E-02
820,11	4,3474E-01
820,43	6,2764E-02
820,75	7,7937E-01
821,07	3,1346E-02
821,39	-5,0383E-01
821,71	5,3649E-01
822,03	-7,9213E-01
822,35	1,1718E00
822,67	-4,7099E-01
822,99	8,2708E-01
823,31	3,5139E-01
823,62	-4,7871E-01
823,94	2,8829E-01
824,26	-4,8256E-01
824,58	9,7237E-01
824,90	-2,8936E-01
825,22	9,3990E-01
825,54	6,8910E-01
825,86	8,8772E-01
826,17	9,7901E-02
826,49	7,5362E-01
826,81	-6,2694E-01
827,13	1,0344E00
827,45	1,9782E-01
827,77	5,2784E-01
828,08	6,5889E-02
828,40	-7,6907E-01
828,72	-4,3542E-01
829,04	-9,3780E-01
829,36	-7,3754E-01
829,67	-1,3439E-01
829,99	-3,4125E-02
830,31	-4,8291E-01
830,63	-6,8308E-02
830,95	-1,0228E-01
831,26	8,8945E-01
831,58	1,3740E00
831,90	-2,4176E-01
832,22	5,1962E-01
832,53	-8,6950E-01
832,85	7,6273E-01
833,17	1,5334E00
833,49	6,9588E-01
833,80	4,9693E-01
834,12	1,2382E00
834,44	-2,1186E-01
834,76	-1,4186E-01
835,07	-7,9263E-01
835,39	-1,7884E-01
835,71	0,0000E00
836,02	-2,1424E-01
836,34	2,8858E-01
836,66	6,1392E-01
836,97	1,0083E00
837,29	0,0000E00
837,61	4,6953E-01
837,93	1,6725E00
838,24	1,2733E00
838,56	1,4599E-01
838,88	5,8661E-01
839,19	5,5626E-01
839,51	1,4406E00
839,82	4,4641E-01
840,14	1,8198E00
840,46	-3,7304E-01
840,77	7,1308E-01
841,09	1,3114E00
841,41	4,1003E-01
841,72	-2,6227E-01
842,04	5,6790E-01
842,35	-1,1336E-01
842,67	-9,9681E-01
842,99	8,3760E-01
843,30	1,1558E00
843,62	4,9823E-01
843,93	-3,4914E-01
844,25	-5,3944E-01
844,56	3,9087E-02
844,88	1,5627E-01
845,20	7,0480E-01
845,51	3,5345E-01
845,83	3,9681E-02
846,14	4,7659E-01
846,46	1,0213E00
846,77	-1,9830E-01
847,09	-6,4217E-01
847,40	1,5990E-01
847,72	8,5450E-01
848,03	1,1670E00
848,35	-2,0301E-01
848,66	8,9752E-01
848,98	1,2615E00
849,29	1,0573E00
849,61	-4,5263E-01
849,92	1,3911E00
850,24	-1,6530E-01
850,55	1,2463E-01
850,87	1,6673E00
851,18	0,0000E00
851,50	0,0000E00
851,81	1,2549E-01
852,12	-2,0991E-01
852,44	-5,9457E-01
852,75	-7,6688E-01
853,07	4,2743E-02
853,38	-1,2934E-01
853,70	2,1392E-01
854,01	2,9843E-01
854,32	7,3481E-01
854,64	-1,7641E-01
854,95	1,3076E-01
855,27	-6,5410E-01
855,58	3,0702E-01
855,89	-4,8981E-01
856,21	1,3255E-01
856,52	-5,2362E-01
856,83	1,4533E00
857,15	5,8170E-01
857,46	9,9203E-01
857,77	-3,5772E-01
858,09	4,9569E-01
858,40	3,1503E-01
858,71	1,8214E-01
859,03	1,1886E00
859,34	-7,7789E-01
859,65	1,2392E00
859,97	-9,2126E-02
860,28	6,0335E-01
860,59	-4,2168E-01
860,91	1,5391E00
861,22	5,1576E-01
861,53	4,6661E-02
861,84	2,0729E00
862,16	3,3019E-01
862,47	9,9089E-01
862,78	1,3782E00
863,10	5,3075E-01
863,41	1,1896E00
863,72	-1,9264E-01
864,03	1,8947E00
864,35	-1,2689E00
864,66	4,8531E-01
864,97	2,1480E00
865,28	2,3378E00
865,59	8,3729E-01
865,91	9,8797E-02
866,22	1,0923E00
866,53	-4,9493E-02
866,84	1,1117E00
867,15	8,5528E-01
867,47	-3,0249E-01
867,78	1,5596E00
868,09	5,0755E-01
868,40	-2,0040E00
868,71	-5,6675E-01
869,02	1,5637E-01
869,34	1,1892E00
869,65	-9,9764E-01
869,96	0,0000E00
870,27	-1,5247E00
870,58	1,5775E-01
870,89	1,6889E00
871,20	1,3844E00
871,52	-1,0103E00
871,83	1,6136E-01
872,14	-1,1803E00
872,45	1,1380E00
872,76	-4,3401E-01
873,07	-3,0360E00
873,38	1,8681E00
873,69	-1,6991E00
874,00	0,0000E00
874,31	9,4957E-01
874,62	2,7684E-01
874,94	1,6848E-01
875,25	-3,8915E-01
875,56	5,6591E-02
875,87	3,9692E-01
876,18	1,1825E00
876,49	-5,1150E-01
876,80	-1,7288E00
877,11	0,0000E00
877,42	-1,4181E00
877,73	8,0751E-01
878,04	-1,1509E-01
878,35	1,5109E00
878,66	-7,5925E-01
878,97	-2,9180E-01
879,28	2,3538E00
879,59	-2,9481E-01
879,90	2,3496E-01
880,21	-2,3920E00
880,52	-4,0946E-01
880,83	2,3184E00
881,14	6,5756E-01
881,45	-1,9001E00
881,76	-8,3209E-01
882,07	5,2971E-01
882,37	5,9750E-02
882,68	1,1855E-01
882,99	-4,7262E-01
883,30	8,2752E-01
883,61	1,6040E00
883,92	-7,8260E-01
884,23	6,4920E-01
884,54	-3,5102E-01
884,85	2,6089E00
885,16	-7,7479E-01
885,47	2,5841E00
885,77	3,0838E00
886,08	1,3125E00
886,39	2,1461E00
886,70	4,6961E-01
887,01	1,1320E00
887,32	3,5466E-01
887,63	1,3599E00
887,93	-2,3474E-01
888,24	-5,8480E-01
888,55	-1,7841E00
888,86	-5,9036E-02
889,17	1,0671E00
889,47	2,1894E00
889,78	-6,4865E-01
890,09	5,9776E-02
890,40	1,0610E00
890,71	2,3639E-01
891,01	4,7228E-01
891,32	1,1210E00
891,63	-1,7066E00
891,94	4,7331E-01
892,25	-5,3200E-01
892,55	3,0343E00
892,86	-8,2851E-01
893,17	2,0135E00
893,48	7,6554E-01
893,78	4,1104E-01
894,09	-1,9510E00
894,40	2,9495E-01
894,70	-2,2877E00
895,01	4,7559E-01
895,32	5,8858E-02
895,63	1,7638E-01
895,93	-1,0561E00
896,24	-1,5330E00
896,55	-2,5413E00
896,85	1,0689E00
897,16	2,0804E00
897,47	-1,0535E00
897,77	-4,1535E-01
898,08	-8,3958E-01
898,39	-9,4952E-01
898,69	1,1961E-01
899,00	-1,1991E00
899,31	-3,5410E-01
899,61	-7,8336E-01
899,92	4,1628E-01
900,23	4,0358E00
900,53	4,2362E-01
900,84	1,5097E00
901,14	1,1473E00
901,45	-1,5629E00
901,76	-1,6147E00
902,06	9,7435E-01
902,37	7,2630E-01
902,67	9,7241E-01
902,98	4,9170E-01
903,29	-3,6772E-01
903,59	2,4269E-01
903,90	-1,9789E00
904,20	-1,2967E00
904,51	4,9807E-01
904,81	-1,8559E00
905,12	-9,2693E-01
905,42	-1,1186E00
905,73	4,3736E-01
906,03	7,5465E-01
906,34	3,0970E00
906,64	2,5262E00
906,95	2,3411E00
907,25	2,1835E00
907,56	3,2100E00
907,86	1,4536E00
908,17	-1,2754E-01
908,47	3,2160E-01
908,78	4,5144E-01
909,08	3,7497E00
909,39	-1,9429E-01
909,69	-5,9376E-01
910,00	7,9084E-01
910,30	3,9407E-01
910,61	-3,9902E-01
910,91	-7,2906E-01
911,21	4,7338E-01
911,52	6,7398E-01
911,82	2,4961E00
912,13	1,3494E00
912,43	7,3802E-01
912,74	2,0676E-01
913,04	2,1825E00
913,34	4,7540E-01
913,65	-1,1749E00
913,95	5,5651E-01
914,25	-9,8718E-01
914,56	2,2947E00
914,86	2,8897E00
915,17	1,1361E00
915,47	4,9597E-01
915,77	-2,2905E00
916,08	-1,2847E00
916,38	-3,6332E-01
916,68	3,3149E00
916,99	-5,0610E-01
917,29	4,3686E-01
917,59	-7,3995E-01
917,90	8,1979E-01
918,20	3,7259E-01
918,50	-7,4051E-01
918,80	1,2707E00
919,11	6,6867E-01
919,41	-1,8059E00
919,71	-1,0476E00
920,02	1,2978E00
920,32	-6,8865E-01
920,62	8,4801E-01
920,92	-7,7048E-01
921,23	-9,2578E-01
921,53	1,3290E00
921,83	-2,3472E-01
922,13	6,2940E-01
922,44	-1,7554E00
922,74	2,2400E00
923,04	3,2703E00
923,34	7,9798E-02
923,64	1,6044E00
923,95	1,6972E00
924,25	8,1322E-02
924,55	-8,3455E-01
924,85	-5,7696E-01
925,15	-1,1587E00
925,46	3,2991E-01
925,76	-2,5470E-01
926,06	-1,6759E-01
926,36	2,2603E00
926,66	-4,2738E-01
926,96	-4,2590E-01
927,26	-1,3624E00
927,57	-3,8397E00
927,87	-2,5915E-01
928,17	2,1759E00
928,47	2,3730E00
928,77	1,4993E00
929,07	0,0000E00
929,37	1,2410E00
929,67	1,8700E00
929,98	2,6107E00
930,28	1,7351E00
930,58	-1,3747E00
930,88	5,3987E-01
931,18	2,7832E00
931,48	-1,3896E00
931,78	1,4992E00
932,08	0,0000E00
932,38	3,4946E00
932,68	-1,4181E00
932,98	-4,0981E00
933,28	-1,0583E00
933,58	-7,8134E-01
933,88	5,3379E00
934,18	-4,8974E-01
934,48	-2,5614E00
934,78	2,4460E00
935,08	-1,6868E00
935,38	2,9699E-01
935,68	-5,0025E-01
935,98	-2,7060E00
936,28	-1,4261E00
936,58	-1,5268E00
936,88	7,0689E-01
937,18	2,3648E00
937,48	1,8399E00
937,78	-2,8917E00
938,08	2,0894E00
938,38	2,7972E00
938,68	5,2995E-01
938,98	-4,2762E-01
939,28	2,8931E00
939,57	3,7413E00
939,87	3,7674E00
940,17	3,3872E00
940,47	-2,8258E00
940,77	1,1147E-01
941,07	-5,5394E-01
941,37	-2,2100E-01
941,67	-6,6968E-01
941,97	-3,3960E00
942,26	-2,3636E00
942,56	-4,8294E00
942,86	1,4842E00
943,16	0,0000E00
943,46	-3,7445E00
943,76	-2,7838E00
944,06	-6,8955E-01
944,35	-1,8653E00
944,65	3,9692E00
944,95	1,8046E00
945,25	6,0438E-01
945,55	1,2074E-01
945,84	6,4287E00
946,14	-8,6114E-01
946,44	-3,0840E00
946,74	3,7011E00
947,03	-1,2424E00
947,33	1,2601E-01
947,63	4,9306E00
947,93	-2,4895E00
948,23	-4,5395E00
948,52	-3,2293E00
948,82	1,2947E-01
949,12	2,6167E-01
949,41	-1,8056E00
949,71	-4,6280E00
950,01	2,0036E00
950,31	-6,7378E-01
950,60	2,7779E00
950,90	6,7493E-01
951,20	6,6976E00
951,49	7,3616E00
951,79	1,9371E00
952,09	4,8717E00
952,38	1,4103E00
952,68	4,2553E00
952,98	-2,6853E00
953,27	2,4419E00
953,57	1,9800E00
953,87	-8,5930E-01
954,16	8,6888E-01
954,46	1,4688E-01
954,76	1,7685E00
955,05	1,0426E00
955,35	6,1065E00
955,64	1,9373E00
955,94	-1,6308E00
956,24	-3,5008E00
956,53	-7,7213E-01
956,83	4,5649E-01
957,12	3,0765E00
957,42	-3,9083E00
957,72	2,8253E00
958,01	4,2375E00
958,31	1,2656E00
958,60	-4,1464E00
958,90	1,2928E00
959,19	6,4539E-01
959,49	2,4145E00
959,78	1,8287E00
960,08	2,3064E00
960,37	-1,1753E00
960,67	7,0841E00
960,96	2,0573E00
961,26	-3,0865E00
961,55	4,8484E00
961,85	-4,9616E00
962,14	2,0768E00
962,44	-1,9473E00
962,73	-3,8478E00
963,03	3,5422E-01
963,32	-1,9595E00
963,62	3,1923E00
963,91	-3,8252E00
964,21	-1,8139E00
964,50	1,3010E00
964,80	-6,3233E00
965,09	-5,6497E-01
965,38	3,4086E00
965,68	1,5092E00
965,97	7,4565E-01
966,27	2,4976E00
966,56	3,4909E00
966,85	7,8135E-01
967,15	-1,7839E00
967,44	-1,7768E00
967,74	2,4000E00
968,03	2,3903E00
968,32	-6,4747E00
968,62	1,4289E00
968,91	-2,2555E00
969,20	-1,6762E00
969,50	8,7233E00
969,79	-6,3316E-01
970,08	-6,3188E-01
970,38	9,5513E00
970,67	-3,3738E00
970,96	1,0646E00
971,26	4,3425E-01
971,55	2,4129E00
971,84	1,0325E01
972,13	-1,1222E00
972,43	9,4976E00
972,72	-2,4640E00
973,01	5,8064E00
973,31	3,4969E00
973,60	4,7936E00
973,89	-1,3693E00
974,18	7,1424E00
974,48	7,4073E00
974,77	3,4893E00
975,06	2,8854E00
975,35	7,4024E-01
975,64	2,4964E-01
975,94	1,0952E01
976,23	8,2131E00
976,52	-4,7329E00
976,81	7,0952E00
977,10	8,7709E00
977,40	6,0998E00
977,69	-4,1410E00
977,98	-3,1684E00
978,27	-6,4141E00
978,56	-4,8013E00
978,86	3,8592E00
979,15	7,4457E00
979,44	-4,9550E00
979,73	1,3664E00
980,02	-2,1992E00
980,31	1,1306E00
980,60	-2,8314E-01
980,89	4,1476E00
981,19	9,6596E00
981,48	-1,1559E00
981,77	3,7664E00
982,06	1,0489E01
982,35	2,0776E00
982,64	8,9578E-01
982,93	-1,1732E01
983,22	3,0618E00
983,51	-4,2905E00
983,80	-2,1213E00
984,09	-6,1422E00
984,38	-2,5382E00
984,67	-3,1473E00
984,96	1,9152E00
985,25	5,7806E00
985,55	0,0000E00
985,84	-3,8761E00
986,13	5,3308E00
986,42	1,1732E01
986,71	4,7569E00
987,00	7,0830E00
987,29	-4,5004E00
987,58	-3,0814E00
987,86	7,7620E00
988,15	4,1604E00
988,44	1,7739E00
988,73	-3,5979E00
989,02	-3,9789E00
989,31	-2,5979E00
989,60	1,4757E00
989,89	0,0000E00
990,18	1,0432E01
990,47	-5,1831E00
990,76	2,3402E00
991,05	1,9198E00
991,34	1,2628E01
991,63	-5,1700E00
991,92	-7,7458E00
992,20	5,1418E00
992,49	-2,0152E00
992,78	-6,6523E00
993,07	9,9305E00
993,36	-8,6570E-01
993,65	-9,5982E00
993,94	-7,2966E00
994,22	8,8528E00
994,51	2,0759E01
994,80	2,1253E01
995,09	2,6306E00
995,38	1,0882E01
995,67	8,8764E00
995,95	9,2740E-01
996,24	-5,1279E00
996,53	-6,6244E00
996,82	-1,4105E01
997,11	1,6972E01
997,39	1,2843E01
997,68	-1,9632E00
997,97	7,8218E00
998,26	1,9152E00
998,54	7,3118E00
998,83	1,1088E01
999,12	5,1069E-01
999,41	1,0601E01
999,69	-5,0371E00
999,98	4,6721E00
1000,27	-1,6318E01
1000,56	2,1839E01
1000,84	1,0136E01
1001,13	4,2745E00
1001,42	1,0966E01
1001,70	-1,1174E01
1001,99	3,0324E01
1002,28	6,7707E00
1002,56	2,0532E01
1002,85	2,1705E01
1003,14	3,4139E00
1003,42	-8,4780E00
1003,71	9,5502E00
1004,00	1,6323E01
1004,28	-5,2803E00
1004,57	-4,8651E00
1004,86	-1,0174E01
1005,14	-1,5095E01
1005,43	-1,1026E01
1005,72	8,0389E00
1006,00	-5,1491E00
1006,29	-1,1230E01
1006,57	9,8550E00
1006,86	-1,5758E01
1007,15	-1,1646E01
1007,43	1,6369E01
1007,72	1,4590E01
1008,00	-6,8829E-01
1008,29	4,9217E00
1008,57	4,1679E00
1008,86	7,1199E00
1009,14	1,9793E01
1009,43	8,2818E00
1009,71	-3,8581E00
1010,00	1,9116E01
1010,29	1,0500E01
1010,57	1,6770E01
1010,86	-1,7511E01
1011,14	2,9941E01
1011,43	-6,3561E00
1011,71	1,9567E01
1011,99	-2,2334E01
1012,28	-7,4766E00
1012,56	-2,2972E01
1012,85	-8,2302E-01
1013,13	4,6879E01
1013,42	1,4258E01
1013,70	8,0217E00
1013,99	-1,4044E01
1014,27	2,2568E01
1014,56	8,0534E00
1014,84	5,5353E00
1015,12	4,7997E01
1015,41	3,0301E01
1015,69	4,9713E01
1015,98	-2,7574E00
1016,26	4,8437E00
1016,54	7,7539E00
1016,83	1,7013E01
1017,11	-1,1083E01
1017,39	2,0779E01
1017,68	9,0286E00
1017,96	4,7670E01
1018,25	3,4108E01
1018,53	6,0877E00
1018,81	-3,2673E01
1019,10	-2,1129E00
1019,38	9,7407E00
1019,66	1,1051E00
1019,94	0,0000E00
1020,23	3,6646E01
1020,51	8,2208E00
1020,79	-2,3330E00
1021,08	-5,9207E00
1021,36	1,5009E01
1021,64	2,9694E01
1021,93	1,0214E01
1022,21	-1,4003E01
1022,49	-1,4003E01
>>>>>End Processed Spectral Data<<<<<
